val_loss,val_accuracy,loss,accuracy,lr
0.592219889163971,0.699999988079071,0.6465846180915833,0.574999988079071,0.0010000000474974513
0.5668965578079224,0.699999988079071,0.38044077157974243,0.862500011920929,0.0010000000474974513
0.555687427520752,0.699999988079071,0.2846748471260071,0.856249988079071,0.0010000000474974513
0.5356377363204956,0.699999988079071,0.21609238684177398,0.925000011920929,0.0010000000474974513
0.4937613010406494,0.75,0.1865999311208725,0.925000011920929,0.0010000000474974513
0.5111459493637085,0.75,0.14215877652168274,0.96875,0.0010000000474974513
0.5599633455276489,1.0,0.09807433784008027,0.9750000238418579,0.0010000000474974513
0.5433334112167358,0.949999988079071,0.06844120547175407,0.981249988079071,0.0010000000474974513
0.5166476368904114,0.949999988079071,0.05012912005186081,0.987500011920929,0.0010000000474974513
0.605157732963562,0.6000000238418579,0.06709726005792618,0.96875,0.0010000000474974513
0.854934811592102,0.30000001192092896,0.06475331634283066,0.981249988079071,0.0010000000474974513
1.172370433807373,0.30000001192092896,0.021768557280302046,1.0,0.0010000000474974513
1.0269546508789062,0.30000001192092896,0.029499169811606406,1.0,0.0010000000474974513
1.0137805938720703,0.30000001192092896,0.01711815781891346,1.0,0.0010000000474974513
1.3454540967941284,0.30000001192092896,0.013307892065495253,1.0,0.0010000000474974513
1.826552152633667,0.30000001192092896,0.008853108808398246,1.0,0.0010000000474974513
2.0635228157043457,0.30000001192092896,0.011209141835570336,1.0,0.0010000000474974513
2.145301103591919,0.30000001192092896,0.008794832974672318,1.0,0.0010000000474974513
2.448756694793701,0.30000001192092896,0.005801609018817544,1.0,0.0010000000474974513
2.8067786693573,0.30000001192092896,0.004891323484480381,1.0,0.0010000000474974513
3.107032060623169,0.30000001192092896,0.004525499418377876,1.0,0.0010000000474974513
3.2572102546691895,0.30000001192092896,0.0033964550122618673,1.0,0.0010000000474974513
3.337423801422119,0.30000001192092896,0.0028962091077119113,1.0,0.0010000000474974513
3.3287854194641113,0.30000001192092896,0.006162807904183864,1.0,0.0010000000474974513
3.3807435035705566,0.30000001192092896,0.0024451138451695442,1.0,0.0010000000474974513
3.634392261505127,0.30000001192092896,0.001875660172663629,1.0,0.0010000000474974513
4.0318708419799805,0.30000001192092896,0.0027172657661139964,1.0,0.0010000000474974513
4.596259117126465,0.30000001192092896,0.0050253975205123425,1.0,0.0010000000474974513
5.163612365722656,0.30000001192092896,0.004424171522259712,1.0,0.0010000000474974513
5.3344621658325195,0.30000001192092896,0.0022374967113137243,1.0,0.0010000000474974513
5.338903427124023,0.30000001192092896,0.0016766648972406984,1.0,0.0010000000474974513
5.232897758483887,0.30000001192092896,0.0014246358536183835,1.0,0.0010000000474974513
5.115965366363525,0.30000001192092896,0.0018350553000345826,1.0,0.0010000000474974513
5.0249810218811035,0.30000001192092896,0.0013565948116593062,1.0,0.0010000000474974513
4.99445104598999,0.30000001192092896,0.0011957312002778054,1.0,0.0010000000474974513
5.0802106857299805,0.30000001192092896,0.0012844199314713477,1.0,0.0010000000474974513
5.237100601196289,0.30000001192092896,0.0010200945660471916,1.0,0.0010000000474974513
5.409163475036621,0.30000001192092896,0.0009454023558646441,1.0,0.0010000000474974513
5.566810131072998,0.30000001192092896,0.0009460073430091143,1.0,0.0010000000474974513
5.7479987144470215,0.30000001192092896,0.0016976029146462679,1.0,0.0010000000474974513
5.90177059173584,0.30000001192092896,0.0011317399330437183,1.0,0.0010000000474974513
5.9807844161987305,0.30000001192092896,0.0013833989389240742,1.0,0.0010000000474974513
6.0670976638793945,0.30000001192092896,0.000988641520962119,1.0,0.0010000000474974513
6.192879676818848,0.30000001192092896,0.0008785295067355037,1.0,0.0010000000474974513
6.285536289215088,0.30000001192092896,0.0007402717485092581,1.0,0.0010000000474974513
6.34714937210083,0.30000001192092896,0.0006211205385625362,1.0,0.0010000000474974513
6.380859375,0.30000001192092896,0.0006494432338513434,1.0,0.0010000000474974513
6.387999534606934,0.30000001192092896,0.0010219159768894315,1.0,0.0010000000474974513
6.377072811126709,0.30000001192092896,0.0005461773951537907,1.0,0.0010000000474974513
6.349993705749512,0.30000001192092896,0.0004967284272424877,1.0,0.0010000000474974513
6.312692165374756,0.30000001192092896,0.00047925303224474194,1.0,0.0010000000474974513
6.2619476318359375,0.30000001192092896,0.0011172133265063167,1.0,0.0010000000474974513
6.257263660430908,0.30000001192092896,0.0010548121063038707,1.0,0.0010000000474974513
6.27471923828125,0.30000001192092896,0.0004953842319082469,1.0,0.0010000000474974513
6.286892890930176,0.30000001192092896,0.0005459284875541925,1.0,0.0010000000474974513
6.284511566162109,0.30000001192092896,0.0005030957632698119,1.0,0.0005000000237487257
6.262790679931641,0.30000001192092896,0.0005133442347869277,1.0,0.0005000000237487257
6.239597320556641,0.30000001192092896,0.0004205845238175243,1.0,0.0005000000237487257
6.212995529174805,0.30000001192092896,0.0004720815224573016,1.0,0.0005000000237487257
6.201411724090576,0.30000001192092896,0.0011506620328873395,1.0,0.0005000000237487257
6.234300136566162,0.30000001192092896,0.00042992031667381524,1.0,0.0005000000237487257
6.2114410400390625,0.30000001192092896,0.0009331213077530265,1.0,0.0005000000237487257
6.114831447601318,0.30000001192092896,0.0005932003841735423,1.0,0.0005000000237487257
6.004364490509033,0.30000001192092896,0.0006871355813927949,1.0,0.0005000000237487257
5.898913383483887,0.30000001192092896,0.000544535368680954,1.0,0.0005000000237487257
5.801937103271484,0.30000001192092896,0.0006022727815434336,1.0,0.0005000000237487257
5.738207817077637,0.30000001192092896,0.0005799416685476899,1.0,0.0005000000237487257
5.719688415527344,0.30000001192092896,0.00047283037565648556,1.0,0.0005000000237487257
5.693050861358643,0.30000001192092896,0.0004551260790321976,1.0,0.0005000000237487257
5.618675231933594,0.30000001192092896,0.0004790957493241876,1.0,0.0005000000237487257
5.5333685874938965,0.30000001192092896,0.0003878128016367555,1.0,0.0005000000237487257
5.414250373840332,0.30000001192092896,0.00034917935263365505,1.0,0.0005000000237487257
5.276619911193848,0.30000001192092896,0.00042356878984719517,1.0,0.0005000000237487257
5.132229328155518,0.30000001192092896,0.00040628540446050463,1.0,0.0005000000237487257
4.981894016265869,0.30000001192092896,0.00032393623841926457,1.0,0.0005000000237487257
4.890782356262207,0.30000001192092896,0.0007841873448342085,1.0,0.0005000000237487257
4.9042840003967285,0.30000001192092896,0.00042055470403283833,1.0,0.0005000000237487257
4.854621410369873,0.30000001192092896,0.0003749113879166543,1.0,0.0005000000237487257
4.770246982574463,0.30000001192092896,0.0003470214898698032,1.0,0.0005000000237487257
4.652606964111328,0.30000001192092896,0.0005421472247689963,1.0,0.0005000000237487257
4.537550449371338,0.30000001192092896,0.00043189998250454665,1.0,0.0005000000237487257
4.419320106506348,0.30000001192092896,0.00038179932162165644,1.0,0.0005000000237487257
4.280714988708496,0.30000001192092896,0.00043439329601824284,1.0,0.0005000000237487257
4.166526794433594,0.30000001192092896,0.0004023702524136752,1.0,0.0005000000237487257
4.046687126159668,0.30000001192092896,0.0003948989557102323,1.0,0.0005000000237487257
3.9154114723205566,0.30000001192092896,0.000556516763754189,1.0,0.0005000000237487257
3.7946534156799316,0.30000001192092896,0.00030920771532692013,1.0,0.0005000000237487257
3.6644763946533203,0.30000001192092896,0.0003509660600684583,1.0,0.0005000000237487257
3.536870241165161,0.30000001192092896,0.0004016077378764749,1.0,0.0005000000237487257
3.389638900756836,0.30000001192092896,0.000390213931677863,1.0,0.0005000000237487257
3.2454230785369873,0.30000001192092896,0.0004516165005043149,1.0,0.0005000000237487257
3.1123759746551514,0.30000001192092896,0.00041006626561284064,1.0,0.0005000000237487257
2.969752073287964,0.30000001192092896,0.0002863005531253293,1.0,0.0005000000237487257
2.834245204925537,0.30000001192092896,0.0006723024882376194,1.0,0.0005000000237487257
2.738063335418701,0.30000001192092896,0.00032801702618598936,1.0,0.0005000000237487257
2.632539987564087,0.30000001192092896,0.0005770397372543811,1.0,0.0005000000237487257
2.534998893737793,0.30000001192092896,0.0005025766149628907,1.0,0.0005000000237487257
2.4373600482940674,0.30000001192092896,0.0002885162713937461,1.0,0.0005000000237487257
2.338024616241455,0.30000001192092896,0.000305526761803776,1.0,0.0005000000237487257
2.2226431369781494,0.30000001192092896,0.0002861357934307307,1.0,0.0005000000237487257
2.1234118938446045,0.30000001192092896,0.00027034597005695107,1.0,0.0005000000237487257
2.0106024742126465,0.30000001192092896,0.000502744218101725,1.0,0.0005000000237487257
1.8883107900619507,0.30000001192092896,0.00048416154459118843,1.0,0.0005000000237487257
1.8184150457382202,0.30000001192092896,0.0005234771524555981,1.0,0.0005000000237487257
1.7847461700439453,0.30000001192092896,0.0003429772274103016,1.0,0.0005000000237487257
1.7048072814941406,0.30000001192092896,0.0002627902722451836,1.0,0.0002500000118743628
1.6288526058197021,0.30000001192092896,0.00040216734632849695,1.0,0.0002500000118743628
1.5367605686187744,0.3499999940395355,0.00034640044614207,1.0,0.0002500000118743628
1.4413361549377441,0.3499999940395355,0.0002748372702626511,1.0,0.0002500000118743628
1.3441202640533447,0.3499999940395355,0.0003038683673366904,1.0,0.0002500000118743628
1.2516776323318481,0.3499999940395355,0.0005809493246488273,1.0,0.0002500000118743628
1.1860870122909546,0.3499999940395355,0.00026223959284834566,1.0,0.0002500000118743628
1.1108287572860718,0.3499999940395355,0.00033163171028718354,1.0,0.0002500000118743628
1.0219666957855225,0.4000000059604645,0.00028488998650573195,1.0,0.0002500000118743628
0.9346768260002136,0.44999998807907104,0.00041050235740840434,1.0,0.0002500000118743628
0.8551862835884094,0.5,0.00025933815632015465,1.0,0.0002500000118743628
0.7743454575538635,0.6000000238418579,0.0005474136327393353,1.0,0.0002500000118743628
0.6992577314376831,0.6000000238418579,0.0003465965623036027,1.0,0.0002500000118743628
0.6338353157043457,0.6000000238418579,0.000272304069949314,1.0,0.0002500000118743628
0.5692328810691833,0.699999988079071,0.0002272051468025893,1.0,0.0002500000118743628
0.5151973962783813,0.75,0.0002504991309251636,1.0,0.0002500000118743628
0.46592506766319275,0.75,0.00029623877489939334,1.0,0.0002500000118743628
0.4301527142524719,0.75,0.00028066104860045014,1.0,0.0002500000118743628
0.4008200168609619,0.800000011920929,0.0004571968282107264,1.0,0.0002500000118743628
0.3794190287590027,0.8500000238418579,0.00040316059021279217,1.0,0.0002500000118743628
0.35086601972579956,0.8500000238418579,0.0007148242322728038,1.0,0.0002500000118743628
0.3253764510154724,0.8999999761581421,0.0002754561777692288,1.0,0.0002500000118743628
0.30006515979766846,0.8999999761581421,0.00024073122185654938,1.0,0.0002500000118743628
0.27692872285842896,0.8999999761581421,0.0003307756909634918,1.0,0.0002500000118743628
0.25747594237327576,0.8999999761581421,0.00025144519750028846,1.0,0.0002500000118743628
0.237399622797966,0.8999999761581421,0.00031644243281334636,1.0,0.0002500000118743628
0.21934589743614197,0.8999999761581421,0.0002600959676783532,1.0,0.0002500000118743628
0.20091822743415833,0.8999999761581421,0.00024261290091089904,1.0,0.0002500000118743628
0.18729647994041443,0.8999999761581421,0.0007358018192462623,1.0,0.0002500000118743628
0.18849828839302063,0.949999988079071,0.005023741745389998,1.0,0.0002500000118743628
0.24149151146411896,0.949999988079071,0.00020960320835001768,1.0,0.0002500000118743628
0.26777854561805725,0.8999999761581421,0.0003903727338183671,1.0,0.0002500000118743628
0.27238985896110535,0.8999999761581421,0.0004403744009323418,1.0,0.0002500000118743628
0.24835744500160217,0.8999999761581421,0.000478405668400228,1.0,0.0002500000118743628
0.2176855057477951,0.949999988079071,0.00043124506482854484,1.0,0.0002500000118743628
0.19304855167865753,0.949999988079071,0.0004200585128273815,1.0,0.0002500000118743628
0.17567619681358337,0.949999988079071,0.00033483260776847603,1.0,0.0002500000118743628
0.1610269844532013,0.949999988079071,0.00033398016239516437,1.0,0.0002500000118743628
0.1511978805065155,0.949999988079071,0.00033680921769700943,1.0,0.0002500000118743628
0.14050820469856262,0.949999988079071,0.0002697049669222906,1.0,0.0002500000118743628
0.1298838108778,0.949999988079071,0.00035315846325829626,1.0,0.0002500000118743628
0.11823384463787079,0.949999988079071,0.00041188938776031135,1.0,0.0002500000118743628
0.10965671390295029,0.949999988079071,0.0002605654182843864,1.0,0.0002500000118743628
0.09763500094413757,0.949999988079071,0.0004304687259718776,1.0,0.0002500000118743628
0.08792976289987564,0.949999988079071,0.00029878822388127444,1.0,0.0002500000118743628
0.07742077112197876,1.0,0.0002637845813296735,1.0,0.0002500000118743628
0.06764194369316101,1.0,0.00044095730409026145,1.0,0.0002500000118743628
0.05710386112332344,1.0,0.0004442950594238937,1.0,0.0002500000118743628
0.048689138144254684,1.0,0.000297469345969148,1.0,0.0002500000118743628
0.04255293309688568,1.0,0.0003234387841075659,1.0,0.0002500000118743628
0.03902112692594528,1.0,0.0003266787505708635,1.0,0.0002500000118743628
0.03622172027826309,1.0,0.0002701806923141703,1.0,0.0002500000118743628
0.033878155052661896,1.0,0.0003530167508870363,1.0,0.0002500000118743628
0.031788188964128494,1.0,0.0002899981860537082,1.0,0.0002500000118743628
0.030474945902824402,1.0,0.00017118953983299434,1.0,0.0002500000118743628
0.029163580387830734,1.0,0.00020016200724057854,1.0,0.0002500000118743628
0.02870520018041134,1.0,0.0002827012445777655,1.0,0.0002500000118743628
0.02771930769085884,1.0,0.00022530153510160744,1.0,0.0002500000118743628
0.026908885687589645,1.0,0.0003359695110702887,1.0,0.0002500000118743628
0.025960823521018028,1.0,0.0003131283243419603,1.0,0.0002500000118743628
0.02517242170870304,1.0,0.00019773802196141333,1.0,0.0002500000118743628
0.024168092757463455,1.0,0.00027118822326883675,1.0,0.0002500000118743628
0.02324603497982025,1.0,0.0003913440916221589,1.0,0.0002500000118743628
0.02249530330300331,1.0,0.00021363843698054552,1.0,0.0002500000118743628
0.02181008830666542,1.0,0.00019145221449434757,1.0,0.0002500000118743628
0.02129167504608631,1.0,0.0002822643204126507,1.0,0.0002500000118743628
0.021001534536480904,1.0,0.00020892650354653597,1.0,0.0002500000118743628
0.020794082432985306,1.0,0.00024087545461952685,1.0,0.0002500000118743628
0.02065863646566868,1.0,0.00021640642080456018,1.0,0.0002500000118743628
0.020782452076673508,1.0,0.000245623171213083,1.0,0.0002500000118743628
0.020980900153517723,1.0,0.0001970932906260714,1.0,0.0002500000118743628
0.021316517144441605,1.0,0.00025121119688265026,1.0,0.0002500000118743628
0.02188696339726448,1.0,0.00019187185971532018,1.0,0.0002500000118743628
0.02235347591340542,1.0,0.00019523795344866812,1.0,0.0002500000118743628
0.02280626818537712,1.0,0.00021918847342021762,1.0,0.0002500000118743628
0.023330148309469223,1.0,0.00024457461549900474,1.0,0.0002500000118743628
0.02384575642645359,1.0,0.0001835098140873015,1.0,0.0002500000118743628
0.024436023086309433,1.0,0.00021481463918462395,1.0,0.0002500000118743628
0.02441747859120369,1.0,0.0003225157037377357,1.0,0.0002500000118743628
0.024642476812005043,1.0,0.00018894633976742625,1.0,0.0002500000118743628
0.02552253007888794,1.0,0.0003582941368222237,1.0,0.0002500000118743628
0.02523311972618103,1.0,0.0003021470969542861,1.0,0.0002500000118743628
0.025165140628814697,1.0,0.00026801583589985967,1.0,0.0002500000118743628
0.024918626993894577,1.0,0.0003167425631545484,1.0,0.0002500000118743628
0.023524850606918335,1.0,0.0002914709330070764,1.0,0.0002500000118743628
0.023556333035230637,1.0,0.00018063475436065347,1.0,0.0002500000118743628
0.023629991337656975,1.0,0.00021962890750728547,1.0,0.0002500000118743628
0.023897280916571617,1.0,0.00017408272251486778,1.0,0.0002500000118743628
0.024072805419564247,1.0,0.00017051009344868362,1.0,0.0002500000118743628
0.024365518242120743,1.0,0.0001489712274633348,1.0,0.0002500000118743628
0.02491907775402069,1.0,0.00020356213208287953,1.0,0.0002500000118743628
0.025255542248487473,1.0,0.00026127576129511,1.0,0.0002500000118743628
0.02629171870648861,1.0,0.0002073905256111175,1.0,0.0002500000118743628
0.027547597885131836,1.0,0.00019319603161420672,1.0,0.0002500000118743628
0.028784722089767456,1.0,0.0002266027848236263,1.0,0.0002500000118743628
0.029536183923482895,1.0,0.0002868433191906661,1.0,0.0002500000118743628
0.030403682962059975,1.0,0.00018333747866563498,1.0,0.0002500000118743628
0.031069695949554443,1.0,0.0001902821008116007,1.0,0.0002500000118743628
0.03222569078207016,1.0,0.0003143300884403288,1.0,0.0002500000118743628
0.03264143317937851,1.0,0.00028848848305642607,1.0,0.0002500000118743628
0.033782489597797394,1.0,0.00033486796310171484,1.0,0.0002500000118743628
0.03505238518118858,1.0,0.0003144470858387649,1.0,0.0002500000118743628
0.035793136805295944,1.0,0.0002449505205731839,1.0,0.0002500000118743628
0.036049775779247284,1.0,0.00027880266425199806,1.0,0.0002500000118743628
0.03800126910209656,1.0,0.0002260342240333557,1.0,0.0002500000118743628
0.039933063089847565,1.0,0.0001433680619811639,1.0,0.0002500000118743628
0.041484277695417404,1.0,0.0001458642800571397,1.0,0.0002500000118743628
0.04309934005141258,1.0,0.00015345336869359015,1.0,0.0002500000118743628
0.04468315839767456,1.0,0.00016512005822733045,1.0,0.0002500000118743628
0.046213746070861816,1.0,0.0001477838319260627,1.0,0.0002500000118743628
0.04681366682052612,1.0,0.00027316935593262314,1.0,0.0002500000118743628
0.0479716956615448,1.0,0.00021904830646235496,1.0,0.0002500000118743628
0.048145003616809845,1.0,0.00015661150682717563,1.0,0.0002500000118743628
0.0483039990067482,1.0,0.00015846602327656,1.0,0.0002500000118743628
0.04717864468693733,1.0,0.00030997089052107183,1.0,0.0002500000118743628
0.04590066894888878,1.0,0.00014573339140042663,1.0,0.0002500000118743628
0.045497000217437744,1.0,0.00021938347490504383,1.0,0.0002500000118743628
0.04454072564840317,1.0,0.00042310215067118404,1.0,0.0002500000118743628
0.04551943019032478,1.0,0.00017875825287774205,1.0,0.0002500000118743628
0.046642906963825226,1.0,0.00013849932001903654,1.0,0.0001250000059371814
0.04733549803495407,1.0,0.0001963210350368172,1.0,0.0001250000059371814
0.048082318156957626,1.0,0.00017249301308766007,1.0,0.0001250000059371814
0.04893123358488083,1.0,0.0001539692617370747,1.0,0.0001250000059371814
0.04971449822187424,1.0,0.00014050198078621178,1.0,0.0001250000059371814
0.050337255001068115,1.0,0.0002569026284618303,1.0,0.0001250000059371814
0.050663720816373825,1.0,0.00019173422479070723,1.0,0.0001250000059371814
0.05147514492273331,1.0,0.00020152086653979495,1.0,0.0001250000059371814
0.051624078303575516,1.0,0.00017457522335462272,1.0,0.0001250000059371814
0.05217868089675903,1.0,0.0001369077683193609,1.0,0.0001250000059371814
0.05253962427377701,1.0,0.00020326694357208908,1.0,0.0001250000059371814
0.05344507843255997,1.0,0.00023786050151102244,1.0,0.0001250000059371814
0.0545550175011158,0.949999988079071,0.00016758825513534247,1.0,0.0001250000059371814
0.05479107052087784,0.949999988079071,0.00014975911180954428,1.0,0.0001250000059371814
0.05478823930025101,0.949999988079071,0.00014283164928201585,1.0,0.0001250000059371814
0.055044692009687424,0.949999988079071,0.0001547277090139687,1.0,0.0001250000059371814
0.05547819286584854,0.949999988079071,0.00016361093730665743,1.0,0.0001250000059371814
0.055737048387527466,0.949999988079071,0.00013890490226913242,1.0,0.0001250000059371814
0.05548812076449394,0.949999988079071,0.0001781458588084206,1.0,0.0001250000059371814
0.05547412484884262,0.949999988079071,0.00016128790011862292,1.0,0.0001250000059371814
0.05509427934885025,0.949999988079071,0.00034186901757493615,1.0,0.0001250000059371814
0.0556560680270195,0.949999988079071,0.00018336036591790617,1.0,0.0001250000059371814
0.05576559901237488,0.949999988079071,0.0001689787342911586,1.0,0.0001250000059371814
0.055515266954898834,0.949999988079071,0.0001601453230250627,1.0,0.0001250000059371814
0.05559850484132767,0.949999988079071,0.00014446306740865112,1.0,0.0001250000059371814
0.05550026148557663,0.949999988079071,0.000193622219376266,1.0,0.0001250000059371814
0.05615954473614693,0.949999988079071,0.00023502330586779862,1.0,0.0001250000059371814
0.056396208703517914,0.949999988079071,0.0001915512897539884,1.0,0.0001250000059371814
0.056725453585386276,0.949999988079071,0.00018184779910370707,1.0,0.0001250000059371814
0.05844740942120552,0.949999988079071,0.00015071070520207287,1.0,0.0001250000059371814
0.05988107994198799,0.949999988079071,0.0002619914594106376,1.0,0.0001250000059371814
0.06159701198339462,0.949999988079071,0.0001140117208706215,1.0,0.0001250000059371814
0.0640772357583046,0.949999988079071,0.00021841105190105735,1.0,0.0001250000059371814
0.06655528396368027,0.949999988079071,0.00014712937409058213,1.0,0.0001250000059371814
0.0688340961933136,0.949999988079071,0.0002757375070359558,1.0,0.0001250000059371814
0.06995877623558044,0.949999988079071,0.00015067308268044144,1.0,0.0001250000059371814
0.06901825219392776,0.949999988079071,0.00031406545313075187,1.0,0.0001250000059371814
0.06857429444789886,0.949999988079071,0.00013759515568381175,1.0,0.0001250000059371814
0.06847456097602844,0.949999988079071,0.00014483141130767764,1.0,0.0001250000059371814
0.06872234493494034,0.949999988079071,0.00015460476279258729,1.0,0.0001250000059371814
0.0685790628194809,0.949999988079071,0.000144259788794443,1.0,0.0001250000059371814
0.06868606060743332,0.949999988079071,0.0003984506125561893,1.0,0.0001250000059371814
0.07148949056863785,0.949999988079071,0.00032643317827023565,1.0,0.0001250000059371814
0.07154791057109833,0.949999988079071,0.0001819041557610035,1.0,0.0001250000059371814
0.07154297828674316,0.949999988079071,0.00014287558733485639,1.0,0.0001250000059371814
0.07045422494411469,0.949999988079071,0.0005684553179889917,1.0,0.0001250000059371814
0.06563296169042587,0.949999988079071,0.00014035880158189685,1.0,0.0001250000059371814
0.06178576871752739,0.949999988079071,0.00020077092340216042,1.0,0.0001250000059371814
0.057937223464250565,0.949999988079071,0.00012695066106971353,1.0,0.0001250000059371814
0.05520964413881302,1.0,0.0001545147388242185,1.0,0.0001250000059371814
0.054347969591617584,1.0,0.00030174157582223414,1.0,9.999999747378752e-05
0.052932001650333405,1.0,0.00028858573059551416,1.0,9.999999747378752e-05
0.05235109478235245,1.0,0.00016125415859278292,1.0,9.999999747378752e-05
0.0525653138756752,1.0,0.0001562661462230608,1.0,9.999999747378752e-05
0.05254276469349861,1.0,0.00016708796902094037,1.0,9.999999747378752e-05
0.053228944540023804,1.0,0.00015590111433994025,1.0,9.999999747378752e-05
0.04818134009838104,1.0,0.002182354184333235,1.0,9.999999747378752e-05
0.03848070651292801,1.0,0.00024712679733056574,1.0,9.999999747378752e-05
0.03798149153590202,1.0,0.00023389546549879014,1.0,9.999999747378752e-05
0.03926835581660271,1.0,0.00029310897225514053,1.0,9.999999747378752e-05
0.03993517905473709,1.0,0.000246910669375211,1.0,9.999999747378752e-05
0.04063146561384201,1.0,0.000356117362389341,1.0,9.999999747378752e-05
0.04322030022740364,1.0,0.0002537781896535307,1.0,9.999999747378752e-05
0.05005098506808281,0.949999988079071,0.0003423485904932022,1.0,9.999999747378752e-05
0.06030799821019173,0.949999988079071,0.0002880910411477089,1.0,9.999999747378752e-05
0.07338254898786545,0.949999988079071,0.00027461639256216587,1.0,9.999999747378752e-05
0.08725792169570923,0.949999988079071,0.0003491871786536649,1.0,9.999999747378752e-05
0.10300431400537491,0.949999988079071,0.00014961664419388399,1.0,9.999999747378752e-05
0.11561830341815948,0.8999999761581421,0.00016008612292353063,1.0,9.999999747378752e-05
0.12343408912420273,0.8999999761581421,0.00016233700152952225,1.0,9.999999747378752e-05
0.12853094935417175,0.8999999761581421,0.00012137111625634133,1.0,9.999999747378752e-05
0.13145418465137482,0.8999999761581421,0.00013783553731627762,1.0,9.999999747378752e-05
0.12642160058021545,0.8999999761581421,0.0004854957514908165,1.0,9.999999747378752e-05
0.11425630748271942,0.8999999761581421,0.0007218474871478975,1.0,9.999999747378752e-05
0.10075698047876358,0.949999988079071,0.00012429178459569812,1.0,9.999999747378752e-05
0.08757978677749634,0.949999988079071,0.0006495437002740801,1.0,9.999999747378752e-05
0.07800135016441345,0.949999988079071,0.000142398668685928,1.0,9.999999747378752e-05
0.07170246541500092,0.949999988079071,0.00014764382503926755,1.0,9.999999747378752e-05
0.06671182811260223,0.949999988079071,0.0002271051809657365,1.0,9.999999747378752e-05
0.06490413844585419,0.949999988079071,0.00015480490692425518,1.0,9.999999747378752e-05
0.06486020237207413,0.949999988079071,0.00024060603172983974,1.0,9.999999747378752e-05
0.06437225639820099,0.949999988079071,0.00019177988287992774,1.0,9.999999747378752e-05
0.06667681038379669,0.949999988079071,0.0003145863069221377,1.0,9.999999747378752e-05
0.06816558539867401,0.949999988079071,0.0002478777023497969,1.0,9.999999747378752e-05
0.06981994211673737,0.949999988079071,0.00016317001427523792,1.0,9.999999747378752e-05
0.071872279047966,0.949999988079071,0.0001266869541723281,1.0,9.999999747378752e-05
0.07448436319828033,0.949999988079071,0.00025186426064465194,1.0,9.999999747378752e-05
0.07714720070362091,0.949999988079071,0.00012949225783813744,1.0,9.999999747378752e-05
0.07891221344470978,0.949999988079071,0.00011865808628499507,1.0,9.999999747378752e-05
0.0798599123954773,0.949999988079071,0.00012327021395321935,1.0,9.999999747378752e-05
0.08113656938076019,0.949999988079071,0.00013792858517263084,1.0,9.999999747378752e-05
0.0815993994474411,0.949999988079071,0.00018187025270890444,1.0,9.999999747378752e-05
0.08338873088359833,0.949999988079071,0.00012097501894459128,1.0,9.999999747378752e-05
0.08450105786323547,0.949999988079071,0.00015454527456313372,1.0,9.999999747378752e-05
0.0861869603395462,0.949999988079071,0.0001593474909896031,1.0,9.999999747378752e-05
0.08715938031673431,0.949999988079071,0.0001395300670992583,1.0,9.999999747378752e-05
0.087736114859581,0.949999988079071,0.00023648798232898117,1.0,9.999999747378752e-05
0.0897892564535141,0.949999988079071,0.00015551923133898525,1.0,9.999999747378752e-05
0.09124402701854706,0.949999988079071,0.00024815963988658043,1.0,9.999999747378752e-05
0.09326159954071045,0.949999988079071,0.00011815555044449865,1.0,9.999999747378752e-05
0.09437505155801773,0.949999988079071,0.0001473156298743561,1.0,9.999999747378752e-05
0.09498029947280884,0.949999988079071,0.00010272935614921152,1.0,9.999999747378752e-05
0.09486677497625351,0.949999988079071,0.000128502378356643,1.0,9.999999747378752e-05
0.09557121992111206,0.949999988079071,0.0001266010935069062,1.0,9.999999747378752e-05
0.09497737139463425,0.949999988079071,0.00010473760485183448,1.0,9.999999747378752e-05
0.0941522866487503,0.949999988079071,0.0002449247054755688,1.0,9.999999747378752e-05
0.09271317720413208,0.949999988079071,0.00025216771173290907,1.0,9.999999747378752e-05
0.08972612023353577,0.949999988079071,0.0004932484123855829,1.0,9.999999747378752e-05
0.08234389126300812,0.949999988079071,0.00017352411523461342,1.0,9.999999747378752e-05
0.07770435512065887,0.949999988079071,0.00012482177116908134,1.0,9.999999747378752e-05
0.07479088753461838,0.949999988079071,0.00012073238613083959,1.0,9.999999747378752e-05
0.07283810526132584,0.949999988079071,0.00013177639339119197,1.0,9.999999747378752e-05
0.07169701159000397,0.949999988079071,0.00013664891012012958,1.0,9.999999747378752e-05
0.07180662453174591,0.949999988079071,0.00011952111090067774,1.0,9.999999747378752e-05
0.07171234488487244,0.949999988079071,0.00012823572324123235,1.0,9.999999747378752e-05
0.0726853534579277,0.949999988079071,0.00012554904096759856,1.0,9.999999747378752e-05
0.07308755815029144,0.949999988079071,0.00023310294491238893,1.0,9.999999747378752e-05
0.07465212047100067,0.949999988079071,0.0001518107717856765,1.0,9.999999747378752e-05
0.07610146701335907,0.949999988079071,0.00014330727863125502,1.0,9.999999747378752e-05
0.07755540311336517,0.949999988079071,0.0001059201211319305,1.0,9.999999747378752e-05
0.07887674123048782,0.949999988079071,0.00017460178351029753,1.0,9.999999747378752e-05
0.08056610077619553,0.949999988079071,0.0001154239842435345,1.0,9.999999747378752e-05
0.08108518272638321,0.949999988079071,0.00010548619757173583,1.0,9.999999747378752e-05
0.08197494596242905,0.949999988079071,0.00011412297026254236,1.0,9.999999747378752e-05
0.08240540325641632,0.949999988079071,0.00010822826880030334,1.0,9.999999747378752e-05
0.08360869437456131,0.949999988079071,0.00013221850094851105,1.0,9.999999747378752e-05
0.08443678170442581,0.949999988079071,0.00010769603832159192,1.0,9.999999747378752e-05
0.08543101698160172,0.949999988079071,0.0001226025284267962,1.0,9.999999747378752e-05
0.08728519082069397,0.949999988079071,0.00021270872093737125,1.0,9.999999747378752e-05
0.08832423388957977,0.949999988079071,0.00011594790412345901,1.0,9.999999747378752e-05
0.08878884464502335,0.949999988079071,0.0002700085286051035,1.0,9.999999747378752e-05
0.08710149675607681,0.949999988079071,0.00011668043152894825,1.0,9.999999747378752e-05
0.08617710322141647,0.949999988079071,0.0001650362741202116,1.0,9.999999747378752e-05
0.08515840768814087,0.949999988079071,0.0001265414000954479,1.0,9.999999747378752e-05
0.08411530405282974,0.949999988079071,0.00015415618545375765,1.0,9.999999747378752e-05
0.08408406376838684,0.949999988079071,0.00016600515809841453,1.0,9.999999747378752e-05
0.08294269442558289,0.949999988079071,0.00012354715436231346,1.0,9.999999747378752e-05
0.08273641765117645,0.949999988079071,9.418202243978157e-05,1.0,9.999999747378752e-05
0.08241631090641022,0.949999988079071,0.00012730868766084314,1.0,9.999999747378752e-05
0.08193765580654144,0.949999988079071,0.0001759075908921659,1.0,9.999999747378752e-05
0.08190363645553589,0.949999988079071,0.00014731452683918177,1.0,9.999999747378752e-05
0.08265813440084457,0.949999988079071,0.00012621788337128237,1.0,9.999999747378752e-05
0.08249011635780334,0.949999988079071,0.00010440974438097328,1.0,9.999999747378752e-05
0.08174102008342743,0.949999988079071,0.0002418318676063791,1.0,9.999999747378752e-05
0.08137886226177216,0.949999988079071,0.00010499921627342701,1.0,9.999999747378752e-05
0.0802016630768776,0.949999988079071,0.0003462467109784484,1.0,9.999999747378752e-05
0.08050742000341415,0.949999988079071,0.00010283674928359687,1.0,9.999999747378752e-05
0.08179256319999695,0.949999988079071,0.00020135327067691833,1.0,9.999999747378752e-05
0.08198804408311844,0.949999988079071,0.00013047777465544642,1.0,9.999999747378752e-05
0.08151040226221085,0.949999988079071,0.00024485773756168785,1.0,9.999999747378752e-05
0.08248870074748993,0.949999988079071,0.00011373513989383355,1.0,9.999999747378752e-05
0.08277545869350433,0.949999988079071,0.00013074745365884154,1.0,9.999999747378752e-05
0.08379907160997391,0.949999988079071,0.00019688948959810658,1.0,9.999999747378752e-05
0.08344926685094833,0.949999988079071,0.00024250363057944923,1.0,9.999999747378752e-05
0.08274917304515839,0.949999988079071,0.0001473751210141927,1.0,9.999999747378752e-05
0.08228129148483276,0.949999988079071,0.0002569388481788337,1.0,9.999999747378752e-05
0.08350428938865662,0.949999988079071,0.0001665046962443739,1.0,9.999999747378752e-05
0.08513689786195755,0.949999988079071,0.00019899970502592623,1.0,9.999999747378752e-05
0.08654074370861053,0.949999988079071,0.0001097884596674703,1.0,9.999999747378752e-05
0.08736769109964371,0.949999988079071,0.00011313013674225658,1.0,9.999999747378752e-05
0.0878460556268692,0.949999988079071,0.0002652779978234321,1.0,9.999999747378752e-05
0.08439844846725464,0.949999988079071,0.0003050315484870225,1.0,9.999999747378752e-05
0.08337726444005966,0.949999988079071,0.00011487447773106396,1.0,9.999999747378752e-05
0.08230837434530258,0.949999988079071,0.00010797292925417424,1.0,9.999999747378752e-05
0.08215395361185074,0.949999988079071,0.00010363224864704535,1.0,9.999999747378752e-05
0.08238407969474792,0.949999988079071,0.00011315144365653396,1.0,9.999999747378752e-05
0.08366353809833527,0.949999988079071,0.00013948615232948214,1.0,9.999999747378752e-05
0.08441869914531708,0.949999988079071,0.00010587835859041662,1.0,9.999999747378752e-05
0.08503302186727524,0.949999988079071,0.00019320247229188682,1.0,9.999999747378752e-05
0.08745761215686798,0.949999988079071,0.0002529346878873184,1.0,9.999999747378752e-05
0.089518703520298,0.949999988079071,9.2328226310201e-05,1.0,9.999999747378752e-05
0.09018455445766449,0.949999988079071,0.00012333050253801047,1.0,9.999999747378752e-05
0.08986441791057587,0.949999988079071,0.00016806877683848143,1.0,9.999999747378752e-05
0.090424083173275,0.949999988079071,0.0001876453752629459,1.0,9.999999747378752e-05
0.08848558366298676,0.949999988079071,0.00016802166792331263,1.0,9.999999747378752e-05
0.08845613896846771,0.949999988079071,0.0002273366117151454,1.0,9.999999747378752e-05
0.08796168863773346,0.949999988079071,0.00012952737743034958,1.0,9.999999747378752e-05
0.08782623708248138,0.949999988079071,0.00010289748897776007,1.0,9.999999747378752e-05
0.08794845640659332,0.949999988079071,0.00015032227092888207,1.0,9.999999747378752e-05
0.08828788995742798,0.949999988079071,0.00013110896979924292,1.0,9.999999747378752e-05
0.08855179697275162,0.949999988079071,0.0002038613660261035,1.0,9.999999747378752e-05
0.08739371597766876,0.949999988079071,0.00011610962683334946,1.0,9.999999747378752e-05
0.08650492876768112,0.949999988079071,9.690570877864956e-05,1.0,9.999999747378752e-05
0.08662600815296173,0.949999988079071,0.00011850597220472992,1.0,9.999999747378752e-05
0.08728952705860138,0.949999988079071,9.67065105214715e-05,1.0,9.999999747378752e-05
0.08775360882282257,0.949999988079071,0.00016362803289666773,1.0,9.999999747378752e-05
0.08893084526062012,0.949999988079071,0.00010754559480119497,1.0,9.999999747378752e-05
0.08968709409236908,0.949999988079071,0.00010307173943147063,1.0,9.999999747378752e-05
0.09022629261016846,0.949999988079071,0.00030913325608707967,1.0,9.999999747378752e-05
0.09226613491773605,0.949999988079071,0.000103326617681887,1.0,9.999999747378752e-05
0.09440279006958008,0.949999988079071,9.750682511366904e-05,1.0,9.999999747378752e-05
0.09616295993328094,0.949999988079071,9.551340190228075e-05,1.0,9.999999747378752e-05
0.09782548248767853,0.949999988079071,9.061907330760732e-05,1.0,9.999999747378752e-05
0.09845958650112152,0.949999988079071,0.0001952549209818244,1.0,9.999999747378752e-05
0.09873224794864655,0.949999988079071,0.00028496886370703577,1.0,9.999999747378752e-05
0.09919627010822296,0.949999988079071,9.485994814895093e-05,1.0,9.999999747378752e-05
0.09958063066005707,0.949999988079071,0.0001066440250724554,1.0,9.999999747378752e-05
0.099920354783535,0.949999988079071,0.0001071676320862025,1.0,9.999999747378752e-05
0.10045520216226578,0.949999988079071,0.0001243060949491337,1.0,9.999999747378752e-05
0.09920744597911835,0.949999988079071,0.00018287418934050947,1.0,9.999999747378752e-05
0.0985606461763382,0.949999988079071,0.00033203291823156176,1.0,9.999999747378752e-05
0.09837336838245392,0.949999988079071,0.0001004704085062258,1.0,9.999999747378752e-05
0.09786192327737808,0.949999988079071,0.00012776789662893862,1.0,9.999999747378752e-05
0.09701558202505112,0.949999988079071,0.00015157063608057798,1.0,9.999999747378752e-05
0.09652598947286606,0.949999988079071,0.00042719499906525017,1.0,9.999999747378752e-05
0.09987647086381912,0.949999988079071,0.00010145754204131663,1.0,9.999999747378752e-05
0.10306642204523087,0.949999988079071,9.421780705451966e-05,1.0,9.999999747378752e-05
0.10486235469579697,0.949999988079071,0.00012498105934355408,1.0,9.999999747378752e-05
0.1041601300239563,0.949999988079071,0.00022840848250780255,1.0,9.999999747378752e-05
0.09724874049425125,0.949999988079071,0.00036910580820403993,1.0,9.999999747378752e-05
0.08761750161647797,0.949999988079071,0.00011148547928314656,1.0,9.999999747378752e-05
0.08185628056526184,0.949999988079071,0.0001040974137140438,1.0,9.999999747378752e-05
0.07810838520526886,0.949999988079071,8.302924397867173e-05,1.0,9.999999747378752e-05
0.07640103995800018,0.949999988079071,8.860682137310505e-05,1.0,9.999999747378752e-05
0.07668519765138626,0.949999988079071,0.00017141609860118478,1.0,9.999999747378752e-05
0.07847539335489273,0.949999988079071,0.00017638318240642548,1.0,9.999999747378752e-05
0.0800771564245224,0.949999988079071,9.044050821103156e-05,1.0,9.999999747378752e-05
0.08212504535913467,0.949999988079071,0.00011608103668550029,1.0,9.999999747378752e-05
0.08442246913909912,0.949999988079071,0.00012979233579244465,1.0,9.999999747378752e-05
0.0866098403930664,0.949999988079071,0.00010400896717328578,1.0,9.999999747378752e-05
0.08939003199338913,0.949999988079071,0.000441729451995343,1.0,9.999999747378752e-05
0.09081581979990005,0.949999988079071,9.426672186236828e-05,1.0,9.999999747378752e-05
0.09254486858844757,0.949999988079071,0.00010262766736559569,1.0,9.999999747378752e-05
0.0941251888871193,0.949999988079071,0.0001368733966955915,1.0,9.999999747378752e-05
0.09609373658895493,0.949999988079071,0.00010545506229391322,1.0,9.999999747378752e-05
0.09741223603487015,0.949999988079071,0.00011714779539033771,1.0,9.999999747378752e-05
0.09819003194570541,0.949999988079071,8.63420107634738e-05,1.0,9.999999747378752e-05
0.09738045930862427,0.949999988079071,0.00045326820109039547,1.0,9.999999747378752e-05
0.09041288495063782,0.949999988079071,9.754185448400677e-05,1.0,9.999999747378752e-05
0.08613210916519165,0.949999988079071,0.00011513624049257487,1.0,9.999999747378752e-05
0.08421371132135391,0.949999988079071,0.00016752175870351493,1.0,9.999999747378752e-05
0.08335739374160767,0.949999988079071,0.00010925729875452817,1.0,9.999999747378752e-05
0.08283389359712601,0.949999988079071,9.206267422996461e-05,1.0,9.999999747378752e-05
0.0832841545343399,0.949999988079071,0.00011331518471706659,1.0,9.999999747378752e-05
0.08414027094841003,0.949999988079071,0.00010142267274204642,1.0,9.999999747378752e-05
0.08519290387630463,0.949999988079071,0.00012030237121507525,1.0,9.999999747378752e-05
0.08730597048997879,0.949999988079071,0.00010250647901557385,1.0,9.999999747378752e-05
0.0891493484377861,0.949999988079071,9.046767372637987e-05,1.0,9.999999747378752e-05
0.09111838042736053,0.949999988079071,0.0001193191681522876,1.0,9.999999747378752e-05
0.09338389337062836,0.949999988079071,0.00011718786554411053,1.0,9.999999747378752e-05
0.0953877717256546,0.949999988079071,0.00013788903306704013,1.0,9.999999747378752e-05
0.09654111415147781,0.949999988079071,0.0003097236127359793,1.0,9.999999747378752e-05
0.09772287309169769,0.949999988079071,0.00011015384225174785,1.0,9.999999747378752e-05
0.09841115772724152,0.949999988079071,0.00017205235199071466,1.0,9.999999747378752e-05
0.0981583222746849,0.949999988079071,0.000270484434440732,1.0,9.999999747378752e-05
0.0978163555264473,0.949999988079071,8.291415288113058e-05,1.0,9.999999747378752e-05
0.09772595018148422,0.949999988079071,9.798432874958962e-05,1.0,9.999999747378752e-05
0.0979790911078453,0.949999988079071,0.00015337976801674814,1.0,9.999999747378752e-05
0.09882984310388565,0.949999988079071,0.00013313752715475856,1.0,9.999999747378752e-05
0.09861913323402405,0.949999988079071,0.00010090690630022436,1.0,9.999999747378752e-05
0.09846978634595871,0.949999988079071,8.289238903671503e-05,1.0,9.999999747378752e-05
0.09861239045858383,0.949999988079071,9.796829981496557e-05,1.0,9.999999747378752e-05
0.09835739433765411,0.949999988079071,7.993734325282276e-05,1.0,9.999999747378752e-05
0.09811316430568695,0.949999988079071,0.00013370680098887533,1.0,9.999999747378752e-05
0.09865568578243256,0.949999988079071,0.00012619986664503814,1.0,9.999999747378752e-05
0.09851939976215363,0.949999988079071,0.0001120200555305928,1.0,9.999999747378752e-05
0.09718361496925354,0.949999988079071,9.52977075939998e-05,1.0,9.999999747378752e-05
0.09640158712863922,0.949999988079071,0.00012211549910716711,1.0,9.999999747378752e-05
0.09728845953941345,0.949999988079071,0.00014208686479832977,1.0,9.999999747378752e-05
0.09771250188350677,0.949999988079071,0.0001255114155355841,1.0,9.999999747378752e-05
0.09878771752119064,0.949999988079071,8.915795187931508e-05,1.0,9.999999747378752e-05
0.10006304085254669,0.949999988079071,0.00014180243015289308,1.0,9.999999747378752e-05
0.10114777088165283,0.949999988079071,0.00012511062959674746,1.0,9.999999747378752e-05
0.10118122398853302,0.949999988079071,9.460481232963503e-05,1.0,9.999999747378752e-05
0.10085231065750122,0.949999988079071,9.007475455291569e-05,1.0,9.999999747378752e-05
0.10111548006534576,0.949999988079071,0.00012350622564554213,1.0,9.999999747378752e-05
0.10232751071453094,0.949999988079071,8.578149427194149e-05,1.0,9.999999747378752e-05
0.10310901701450348,0.949999988079071,7.132531318347901e-05,1.0,9.999999747378752e-05
0.10386520624160767,0.949999988079071,0.00012628977419808506,1.0,9.999999747378752e-05
0.10506950318813324,0.949999988079071,0.00013058099721092732,1.0,9.999999747378752e-05
0.10578510910272598,0.949999988079071,7.716287364019081e-05,1.0,9.999999747378752e-05
0.10560685396194458,0.949999988079071,9.913839894579724e-05,1.0,9.999999747378752e-05
0.10673240572214127,0.949999988079071,8.775894093560055e-05,1.0,9.999999747378752e-05
0.1076761931180954,0.949999988079071,7.543243846157566e-05,1.0,9.999999747378752e-05
0.10826756060123444,0.949999988079071,9.39536897931248e-05,1.0,9.999999747378752e-05
0.10844966024160385,0.949999988079071,8.282883936772123e-05,1.0,9.999999747378752e-05
0.10827402770519257,0.949999988079071,9.837774996412918e-05,1.0,9.999999747378752e-05
0.10698435455560684,0.949999988079071,0.0001910917810164392,1.0,9.999999747378752e-05
0.10609330981969833,0.949999988079071,9.453591192141176e-05,1.0,9.999999747378752e-05
0.10521484911441803,0.949999988079071,8.441696700174361e-05,1.0,9.999999747378752e-05
0.10464604198932648,0.949999988079071,6.802636053180323e-05,1.0,9.999999747378752e-05
0.10437903553247452,0.949999988079071,8.517893220414408e-05,1.0,9.999999747378752e-05
0.10426481068134308,0.949999988079071,8.822461823001503e-05,1.0,9.999999747378752e-05
0.10313357412815094,0.949999988079071,0.0002961194084491581,1.0,9.999999747378752e-05
0.09828030318021774,0.949999988079071,8.128596236929297e-05,1.0,9.999999747378752e-05
0.09553089737892151,0.949999988079071,7.052449800539761e-05,1.0,9.999999747378752e-05
0.09434069693088531,0.949999988079071,7.463785295840353e-05,1.0,9.999999747378752e-05
0.09341182559728622,0.949999988079071,0.00011222894536331297,1.0,9.999999747378752e-05
0.0941769927740097,0.949999988079071,8.775417809374631e-05,1.0,9.999999747378752e-05
0.09519428014755249,0.949999988079071,8.196796115953476e-05,1.0,9.999999747378752e-05
0.09708718955516815,0.949999988079071,0.0002351094997720793,1.0,9.999999747378752e-05
0.09978501498699188,0.949999988079071,8.659091836307197e-05,1.0,9.999999747378752e-05
0.10185060650110245,0.949999988079071,0.00011050259927287698,1.0,9.999999747378752e-05
0.10453556478023529,0.949999988079071,0.0001796466443920508,1.0,9.999999747378752e-05
0.10741345584392548,0.949999988079071,0.000169935921439901,1.0,9.999999747378752e-05
0.10705766826868057,0.949999988079071,0.00011476862127892672,1.0,9.999999747378752e-05
0.1067889928817749,0.949999988079071,0.00012879575078841298,1.0,9.999999747378752e-05
0.10795307159423828,0.949999988079071,8.354434685315937e-05,1.0,9.999999747378752e-05
0.10862743854522705,0.949999988079071,8.950985502451659e-05,1.0,9.999999747378752e-05
0.10934773832559586,0.949999988079071,8.571277721785009e-05,1.0,9.999999747378752e-05
0.11057005077600479,0.949999988079071,9.029052380356006e-05,1.0,9.999999747378752e-05
0.11125157028436661,0.949999988079071,7.968971913214773e-05,1.0,9.999999747378752e-05
0.11130962520837784,0.949999988079071,0.00010937336774077266,1.0,9.999999747378752e-05
0.11220081150531769,0.949999988079071,0.00010156543867196887,1.0,9.999999747378752e-05
0.11287321150302887,0.949999988079071,7.66717828810215e-05,1.0,9.999999747378752e-05
0.11383197456598282,0.949999988079071,6.815887027187273e-05,1.0,9.999999747378752e-05
0.11463278532028198,0.949999988079071,9.65206534601748e-05,1.0,9.999999747378752e-05
0.11310990154743195,0.949999988079071,0.0003413734259083867,1.0,9.999999747378752e-05
0.10615314543247223,0.949999988079071,7.614876085426658e-05,1.0,9.999999747378752e-05
0.10175182670354843,0.949999988079071,7.179383101174608e-05,1.0,9.999999747378752e-05
0.09895436465740204,0.949999988079071,8.037772495299578e-05,1.0,9.999999747378752e-05
0.09782812744379044,0.949999988079071,9.32701223064214e-05,1.0,9.999999747378752e-05
0.09692980349063873,0.949999988079071,0.00012854878004873172,1.0,9.999999747378752e-05
0.09626445919275284,0.949999988079071,0.00010230742918793112,1.0,9.999999747378752e-05
0.09571472555398941,0.949999988079071,8.795186004135757e-05,1.0,9.999999747378752e-05
0.09514381736516953,0.949999988079071,7.526972913183272e-05,1.0,9.999999747378752e-05
0.09470883756875992,0.949999988079071,9.720828093122691e-05,1.0,9.999999747378752e-05
0.09512174874544144,0.949999988079071,0.00012484277394833043,1.0,9.999999747378752e-05
0.09638089686632156,0.949999988079071,0.00011915997019968927,1.0,9.999999747378752e-05
0.09600406140089035,0.949999988079071,0.00010393871052656322,1.0,9.999999747378752e-05
0.09605716913938522,0.949999988079071,8.299609035020695e-05,1.0,9.999999747378752e-05
0.09501900523900986,0.949999988079071,0.00011737766326405107,1.0,9.999999747378752e-05
0.09482483565807343,0.949999988079071,6.591483688680455e-05,1.0,9.999999747378752e-05
0.09495612233877182,0.949999988079071,0.0004161893710261211,1.0,9.999999747378752e-05
0.09242486208677292,0.949999988079071,8.364893728867173e-05,1.0,9.999999747378752e-05
0.09161344915628433,0.949999988079071,7.787769209244289e-05,1.0,9.999999747378752e-05
0.09129898995161057,0.949999988079071,8.780793868936598e-05,1.0,9.999999747378752e-05
0.09072725474834442,0.949999988079071,7.41855357773602e-05,1.0,9.999999747378752e-05
0.0906963124871254,0.949999988079071,0.00010305354080628604,1.0,9.999999747378752e-05
0.09077354520559311,0.949999988079071,7.581599347759039e-05,1.0,9.999999747378752e-05
0.09205551445484161,0.949999988079071,0.000125451383064501,1.0,9.999999747378752e-05
0.09341415017843246,0.949999988079071,8.325138041982427e-05,1.0,9.999999747378752e-05
0.09497516602277756,0.949999988079071,9.110464889090508e-05,1.0,9.999999747378752e-05
0.09678617119789124,0.949999988079071,6.427572880056687e-05,1.0,9.999999747378752e-05
0.09835905581712723,0.949999988079071,8.106159657472745e-05,1.0,9.999999747378752e-05
0.09958270937204361,0.949999988079071,0.00013582043757196516,1.0,9.999999747378752e-05
0.10005062818527222,0.949999988079071,9.013496019179001e-05,1.0,9.999999747378752e-05
0.0998687744140625,0.949999988079071,0.0001518694160040468,1.0,9.999999747378752e-05
0.1009577140212059,0.949999988079071,9.619459015084431e-05,1.0,9.999999747378752e-05
0.10120110213756561,0.949999988079071,9.22544626519084e-05,1.0,9.999999747378752e-05
0.10172752290964127,0.949999988079071,7.06049642758444e-05,1.0,9.999999747378752e-05
0.10214121639728546,0.949999988079071,7.325101614696905e-05,1.0,9.999999747378752e-05
0.1026121973991394,0.949999988079071,0.00014514062786474824,1.0,9.999999747378752e-05
0.10377199947834015,0.949999988079071,7.430585246765986e-05,1.0,9.999999747378752e-05
0.10516724735498428,0.949999988079071,0.00012480848527047784,1.0,9.999999747378752e-05
0.10693562030792236,0.949999988079071,0.00011375141039025039,1.0,9.999999747378752e-05
0.10724164545536041,0.949999988079071,0.00013717743859160693,1.0,9.999999747378752e-05
0.10853062570095062,0.949999988079071,8.30116550787352e-05,1.0,9.999999747378752e-05
0.1093849390745163,0.949999988079071,6.432733789552003e-05,1.0,9.999999747378752e-05
0.11121877282857895,0.949999988079071,0.00019563146197469904,1.0,9.999999747378752e-05
0.11266641318798065,0.949999988079071,0.00015528603398706764,1.0,9.999999747378752e-05
0.11361026763916016,0.949999988079071,8.714633877389133e-05,1.0,9.999999747378752e-05
0.11439980566501617,0.949999988079071,0.00011030687892343849,1.0,9.999999747378752e-05
0.11472070217132568,0.949999988079071,0.00011182969756191596,1.0,9.999999747378752e-05
0.11502049118280411,0.949999988079071,0.00011426988057792187,1.0,9.999999747378752e-05
0.11612264811992645,0.949999988079071,6.85168372001499e-05,1.0,9.999999747378752e-05
0.11664000898599625,0.949999988079071,0.00010129953152500093,1.0,9.999999747378752e-05
0.11689378321170807,0.949999988079071,9.868689521681517e-05,1.0,9.999999747378752e-05
0.11683058738708496,0.949999988079071,8.293860300909728e-05,1.0,9.999999747378752e-05
0.11730058491230011,0.949999988079071,7.140331581467763e-05,1.0,9.999999747378752e-05
0.11777181923389435,0.949999988079071,0.000210878872894682,1.0,9.999999747378752e-05
0.1147218719124794,0.949999988079071,7.106058328645303e-05,1.0,9.999999747378752e-05
0.1127549260854721,0.949999988079071,7.321094599319622e-05,1.0,9.999999747378752e-05
0.11144385486841202,0.949999988079071,0.0001642547722440213,1.0,9.999999747378752e-05
0.11202146112918854,0.949999988079071,7.420675392495468e-05,1.0,9.999999747378752e-05
0.11207722127437592,0.949999988079071,6.594775040866808e-05,1.0,9.999999747378752e-05
0.11171618849039078,0.949999988079071,6.475666450569406e-05,1.0,9.999999747378752e-05
0.11114810407161713,0.949999988079071,8.26344286906533e-05,1.0,9.999999747378752e-05
0.11067144572734833,0.949999988079071,0.00013941558718215673,1.0,9.999999747378752e-05
0.10890718549489975,0.949999988079071,7.466400711564347e-05,1.0,9.999999747378752e-05
0.10698221623897552,0.949999988079071,7.835996948415413e-05,1.0,9.999999747378752e-05
0.10644291341304779,0.949999988079071,6.512243126053364e-05,1.0,9.999999747378752e-05
0.1078341007232666,0.949999988079071,0.0002915942910476588,1.0,9.999999747378752e-05
0.1090540736913681,0.949999988079071,9.283723775297404e-05,1.0,9.999999747378752e-05
0.11021806299686432,0.949999988079071,0.00011875727795995772,1.0,9.999999747378752e-05
0.11188657581806183,0.949999988079071,9.486287308391184e-05,1.0,9.999999747378752e-05
0.11281989514827728,0.949999988079071,6.410854330169968e-05,1.0,9.999999747378752e-05
0.11263906955718994,0.949999988079071,0.0001014478737488389,1.0,9.999999747378752e-05
0.11246912181377411,0.949999988079071,9.192803699988871e-05,1.0,9.999999747378752e-05
0.11296846717596054,0.949999988079071,8.934225479606539e-05,1.0,9.999999747378752e-05
0.113752581179142,0.949999988079071,8.17139691207558e-05,1.0,9.999999747378752e-05
0.1132720485329628,0.949999988079071,8.128683257382363e-05,1.0,9.999999747378752e-05
0.11300063133239746,0.949999988079071,0.0001098909488064237,1.0,9.999999747378752e-05
0.11315499246120453,0.949999988079071,9.848078334471211e-05,1.0,9.999999747378752e-05
0.11322853714227676,0.949999988079071,0.00010384055785834789,1.0,9.999999747378752e-05
0.11281268298625946,0.949999988079071,0.00012878002598881721,1.0,9.999999747378752e-05
0.112129345536232,0.949999988079071,8.614989783382044e-05,1.0,9.999999747378752e-05
0.11155445873737335,0.949999988079071,7.81817507231608e-05,1.0,9.999999747378752e-05
0.11133809387683868,0.949999988079071,7.46404446545057e-05,1.0,9.999999747378752e-05
0.11119301617145538,0.949999988079071,9.383412980241701e-05,1.0,9.999999747378752e-05
0.11285404860973358,0.949999988079071,8.369465358555317e-05,1.0,9.999999747378752e-05
0.11390823125839233,0.949999988079071,0.00018246242107124999,1.0,9.999999747378752e-05
0.11389671266078949,0.949999988079071,0.00023992280184756965,1.0,9.999999747378752e-05
0.11626138538122177,0.949999988079071,9.049219952430576e-05,1.0,9.999999747378752e-05
0.1182803362607956,0.949999988079071,0.00013271691859699785,1.0,9.999999747378752e-05
0.11776097863912582,0.949999988079071,0.00013127703277859837,1.0,9.999999747378752e-05
0.11667871475219727,0.949999988079071,6.50276109809056e-05,1.0,9.999999747378752e-05
0.11521120369434357,0.949999988079071,8.720818441361189e-05,1.0,9.999999747378752e-05
0.11364232003688812,0.949999988079071,0.00012365154398139567,1.0,9.999999747378752e-05
0.11266709864139557,0.949999988079071,0.00012013556552119553,1.0,9.999999747378752e-05
0.11013994365930557,0.949999988079071,8.669926319271326e-05,1.0,9.999999747378752e-05
0.1092798262834549,0.949999988079071,0.00023692332906648516,1.0,9.999999747378752e-05
0.10825803130865097,0.949999988079071,0.00010482907528057695,1.0,9.999999747378752e-05
0.10678865015506744,0.949999988079071,0.00014992248907219619,1.0,9.999999747378752e-05
0.10662796348333359,0.949999988079071,8.055299404077231e-05,1.0,9.999999747378752e-05
0.10678090900182724,0.949999988079071,8.587343763792888e-05,1.0,9.999999747378752e-05
0.1070021390914917,0.949999988079071,6.838854678790086e-05,1.0,9.999999747378752e-05
0.10763736069202423,0.949999988079071,8.982991930679418e-05,1.0,9.999999747378752e-05
0.10810928046703339,0.949999988079071,7.182612753240392e-05,1.0,9.999999747378752e-05
0.10895568132400513,0.949999988079071,8.975186210591346e-05,1.0,9.999999747378752e-05
0.10836305469274521,0.949999988079071,6.800411501899362e-05,1.0,9.999999747378752e-05
0.10909458249807358,0.949999988079071,9.940840536728501e-05,1.0,9.999999747378752e-05
0.10964813083410263,0.949999988079071,0.00013592286850325764,1.0,9.999999747378752e-05
0.10986731201410294,0.949999988079071,9.391554340254515e-05,1.0,9.999999747378752e-05
0.10901310294866562,0.949999988079071,8.596015686634928e-05,1.0,9.999999747378752e-05
0.10997895896434784,0.949999988079071,9.674473549239337e-05,1.0,9.999999747378752e-05
0.11101851612329483,0.949999988079071,7.127185381250456e-05,1.0,9.999999747378752e-05
0.11073122173547745,0.949999988079071,6.644762906944379e-05,1.0,9.999999747378752e-05
0.11043237149715424,0.949999988079071,5.63483641599305e-05,1.0,9.999999747378752e-05
0.10979487746953964,0.949999988079071,7.002100464887917e-05,1.0,9.999999747378752e-05
0.1090555191040039,0.949999988079071,6.883783062221483e-05,1.0,9.999999747378752e-05
0.10957218706607819,0.949999988079071,7.24891957361251e-05,1.0,9.999999747378752e-05
0.10904447734355927,0.949999988079071,0.000105850568797905,1.0,9.999999747378752e-05
0.10931575298309326,0.949999988079071,5.239739257376641e-05,1.0,9.999999747378752e-05
0.10868122428655624,0.949999988079071,9.94763831840828e-05,1.0,9.999999747378752e-05
0.10926560312509537,0.949999988079071,8.652279648231342e-05,1.0,9.999999747378752e-05
0.10885028541088104,0.949999988079071,0.00014823705569142476,1.0,9.999999747378752e-05
0.11106836795806885,0.949999988079071,0.0001302076707361266,1.0,9.999999747378752e-05
0.11306283622980118,0.949999988079071,6.423844170058146e-05,1.0,9.999999747378752e-05
0.11311475932598114,0.949999988079071,0.00013840727333445103,1.0,9.999999747378752e-05
0.11433496326208115,0.949999988079071,7.384381606243551e-05,1.0,9.999999747378752e-05
0.11536018550395966,0.949999988079071,4.9628803390078245e-05,1.0,9.999999747378752e-05
0.11583099514245987,0.949999988079071,4.9196736654266715e-05,1.0,9.999999747378752e-05
0.11581782251596451,0.949999988079071,7.023320940788836e-05,1.0,9.999999747378752e-05
0.11720316112041473,0.949999988079071,0.00010563439282123,1.0,9.999999747378752e-05
0.11715938150882721,0.949999988079071,6.122065751696937e-05,1.0,9.999999747378752e-05
0.11635521799325943,0.949999988079071,5.998663400532678e-05,1.0,9.999999747378752e-05
0.11598154157400131,0.949999988079071,6.216830370249226e-05,1.0,9.999999747378752e-05
0.11558113992214203,0.949999988079071,5.602254896075465e-05,1.0,9.999999747378752e-05
0.11540386825799942,0.949999988079071,6.277394859353081e-05,1.0,9.999999747378752e-05
0.11570046097040176,0.949999988079071,5.6555236369604245e-05,1.0,9.999999747378752e-05
0.11605729907751083,0.949999988079071,6.392003415385261e-05,1.0,9.999999747378752e-05
0.11627785116434097,0.949999988079071,6.726185529259965e-05,1.0,9.999999747378752e-05
0.11612243950366974,0.949999988079071,8.909519820008427e-05,1.0,9.999999747378752e-05
0.11727835983037949,0.949999988079071,9.461143927183002e-05,1.0,9.999999747378752e-05
0.11796065419912338,0.949999988079071,0.00014864316763123496,1.0,9.999999747378752e-05
0.12221165746450424,0.949999988079071,0.00010351172822993248,1.0,9.999999747378752e-05
0.12344427406787872,0.949999988079071,7.345331541728229e-05,1.0,9.999999747378752e-05
0.12462787330150604,0.949999988079071,0.0001470837276428938,1.0,9.999999747378752e-05
0.12646234035491943,0.949999988079071,6.585282826563344e-05,1.0,9.999999747378752e-05
0.12737810611724854,0.949999988079071,0.000128339376533404,1.0,9.999999747378752e-05
0.12623059749603271,0.949999988079071,7.893201545812189e-05,1.0,9.999999747378752e-05
0.12303034961223602,0.949999988079071,6.542745832121e-05,1.0,9.999999747378752e-05
0.12138272821903229,0.949999988079071,8.624453184893354e-05,1.0,9.999999747378752e-05
0.11877565085887909,0.949999988079071,0.00010004137002397328,1.0,9.999999747378752e-05
0.11648203432559967,0.949999988079071,0.00010465115337865427,1.0,9.999999747378752e-05
0.11470882594585419,0.949999988079071,5.862020479980856e-05,1.0,9.999999747378752e-05
0.11328747123479843,0.949999988079071,5.8077133144252005e-05,1.0,9.999999747378752e-05
0.11260143667459488,0.949999988079071,6.811898638261482e-05,1.0,9.999999747378752e-05
0.11111028492450714,0.949999988079071,4.986079438822344e-05,1.0,9.999999747378752e-05
0.11032786220312119,0.949999988079071,6.906340713612736e-05,1.0,9.999999747378752e-05
0.10955283790826797,0.949999988079071,7.307883788598701e-05,1.0,9.999999747378752e-05
0.10941512882709503,0.949999988079071,5.090805861982517e-05,1.0,9.999999747378752e-05
0.109908327460289,0.949999988079071,6.565637158928439e-05,1.0,9.999999747378752e-05
0.11003438383340836,0.949999988079071,8.283810457214713e-05,1.0,9.999999747378752e-05
0.11053488403558731,0.949999988079071,0.00022713577418471688,1.0,9.999999747378752e-05
0.11151031404733658,0.949999988079071,6.810419145040215e-05,1.0,9.999999747378752e-05
0.11378379166126251,0.949999988079071,0.00011022676335414872,1.0,9.999999747378752e-05
0.11412175744771957,0.949999988079071,6.381807615980506e-05,1.0,9.999999747378752e-05
0.11525355279445648,0.949999988079071,0.00012260034709470345,1.0,9.999999747378752e-05
0.11420842260122299,0.949999988079071,5.69789539440535e-05,1.0,9.999999747378752e-05
0.1137986034154892,0.949999988079071,5.85039597353898e-05,1.0,9.999999747378752e-05
0.11431870609521866,0.949999988079071,8.018711960176007e-05,1.0,9.999999747378752e-05
0.1135905534029007,0.949999988079071,5.7315245794598016e-05,1.0,9.999999747378752e-05
0.11342237889766693,0.949999988079071,8.330480923177675e-05,1.0,9.999999747378752e-05
0.11178077757358551,0.949999988079071,5.582265876000747e-05,1.0,9.999999747378752e-05
0.11026309430599213,0.949999988079071,7.826102373655885e-05,1.0,9.999999747378752e-05
0.11029627174139023,0.949999988079071,7.51370913349092e-05,1.0,9.999999747378752e-05
0.11071474850177765,0.949999988079071,6.291315658017993e-05,1.0,9.999999747378752e-05
0.10894955694675446,0.949999988079071,0.00012139455939177423,1.0,9.999999747378752e-05
0.10809743404388428,0.949999988079071,6.966602086322382e-05,1.0,9.999999747378752e-05
0.10261909663677216,0.949999988079071,0.00018801418627845123,1.0,9.999999747378752e-05
0.09329449385404587,0.949999988079071,0.000633821400697343,1.0,9.999999747378752e-05
0.08840478211641312,0.949999988079071,5.5542233167216184e-05,1.0,9.999999747378752e-05
0.08420456945896149,0.949999988079071,0.00013256014353828504,1.0,9.999999747378752e-05
0.08148829638957977,0.949999988079071,8.81468178704381e-05,1.0,9.999999747378752e-05
0.07965932041406631,0.949999988079071,0.00013263927248772234,1.0,9.999999747378752e-05
0.0764828696846962,0.949999988079071,7.603047706652432e-05,1.0,9.999999747378752e-05
0.07427629083395004,0.949999988079071,0.00011019401717931032,1.0,9.999999747378752e-05
0.07185345143079758,0.949999988079071,0.00011984846205450594,1.0,9.999999747378752e-05
0.06771142780780792,0.949999988079071,8.931494812713936e-05,1.0,9.999999747378752e-05
0.0668749064207077,0.949999988079071,0.0002328385249711573,1.0,9.999999747378752e-05
0.06668270379304886,0.949999988079071,7.405240321531892e-05,1.0,9.999999747378752e-05
0.06816421449184418,0.949999988079071,0.00019626229186542332,1.0,9.999999747378752e-05
0.07056758552789688,0.949999988079071,0.00012176739110145718,1.0,9.999999747378752e-05
0.07321219146251678,0.949999988079071,0.00015285764238797127,1.0,9.999999747378752e-05
0.0783471018075943,0.949999988079071,5.079337715869769e-05,1.0,9.999999747378752e-05
0.0825992003083229,0.949999988079071,6.236218177946284e-05,1.0,9.999999747378752e-05
0.08713903278112411,0.949999988079071,7.859332108637319e-05,1.0,9.999999747378752e-05
0.09145084768533707,0.949999988079071,4.729401698568836e-05,1.0,9.999999747378752e-05
0.09515352547168732,0.949999988079071,5.50368131371215e-05,1.0,9.999999747378752e-05
0.0983043983578682,0.949999988079071,6.134274590294809e-05,1.0,9.999999747378752e-05
0.10113583505153656,0.949999988079071,5.231661343714222e-05,1.0,9.999999747378752e-05
0.10329343378543854,0.949999988079071,0.00011604470782913267,1.0,9.999999747378752e-05
0.10614071041345596,0.949999988079071,6.0881482204422356e-05,1.0,9.999999747378752e-05
0.10856641829013824,0.949999988079071,5.487869639182463e-05,1.0,9.999999747378752e-05
0.11045553535223007,0.949999988079071,8.184329490177334e-05,1.0,9.999999747378752e-05
0.11349570751190186,0.949999988079071,6.609268821193837e-05,1.0,9.999999747378752e-05
0.11684151738882065,0.949999988079071,7.377853617072106e-05,1.0,9.999999747378752e-05
0.11920294910669327,0.949999988079071,5.433320620795712e-05,1.0,9.999999747378752e-05
0.12138263881206512,0.949999988079071,5.592146917479113e-05,1.0,9.999999747378752e-05
0.12364091724157333,0.949999988079071,4.464422818273306e-05,1.0,9.999999747378752e-05
0.12508150935173035,0.949999988079071,4.99214802403003e-05,1.0,9.999999747378752e-05
0.1257583200931549,0.949999988079071,7.463587098754942e-05,1.0,9.999999747378752e-05
0.1266208291053772,0.949999988079071,0.0001635777996852994,1.0,9.999999747378752e-05
0.12937046587467194,0.949999988079071,6.0395878972485664e-05,1.0,9.999999747378752e-05
0.13126683235168457,0.949999988079071,4.641497507691383e-05,1.0,9.999999747378752e-05
0.131867453455925,0.949999988079071,9.216333855874837e-05,1.0,9.999999747378752e-05
0.1335306465625763,0.949999988079071,0.00018712005112320185,1.0,9.999999747378752e-05
0.1341656893491745,0.949999988079071,6.39165795291774e-05,1.0,9.999999747378752e-05
0.13439568877220154,0.949999988079071,7.004006329225376e-05,1.0,9.999999747378752e-05
0.13350722193717957,0.949999988079071,6.95654161972925e-05,1.0,9.999999747378752e-05
0.13303272426128387,0.949999988079071,4.8092479119077325e-05,1.0,9.999999747378752e-05
0.13312265276908875,0.949999988079071,8.594142564106732e-05,1.0,9.999999747378752e-05
0.13053283095359802,0.949999988079071,7.615743234055117e-05,1.0,9.999999747378752e-05
0.1289529949426651,0.949999988079071,0.00010301438815076835,1.0,9.999999747378752e-05
0.12762653827667236,0.949999988079071,5.359048082027584e-05,1.0,9.999999747378752e-05
0.12689515948295593,0.949999988079071,4.710680950665846e-05,1.0,9.999999747378752e-05
0.12692995369434357,0.949999988079071,4.622507840394974e-05,1.0,9.999999747378752e-05
0.12633194029331207,0.949999988079071,8.638534636702388e-05,1.0,9.999999747378752e-05
0.12578603625297546,0.949999988079071,6.578730972250924e-05,1.0,9.999999747378752e-05
0.12669038772583008,0.949999988079071,6.849358614999801e-05,1.0,9.999999747378752e-05
0.12737822532653809,0.949999988079071,4.460765485418961e-05,1.0,9.999999747378752e-05
0.12817546725273132,0.949999988079071,8.472678018733859e-05,1.0,9.999999747378752e-05
0.12679162621498108,0.949999988079071,6.104171770857648e-05,1.0,9.999999747378752e-05
0.12585163116455078,0.949999988079071,6.316118669928983e-05,1.0,9.999999747378752e-05
0.12520894408226013,0.949999988079071,0.0004647521782317199,1.0,9.999999747378752e-05
0.12062205374240875,0.949999988079071,6.770167237846181e-05,1.0,9.999999747378752e-05
0.11815440654754639,0.949999988079071,6.640975043410435e-05,1.0,9.999999747378752e-05
0.11892984062433243,0.949999988079071,0.00011878309887833894,1.0,9.999999747378752e-05
0.11981620639562607,0.949999988079071,0.00012738626974169166,1.0,9.999999747378752e-05
0.12155385315418243,0.949999988079071,7.474624435417354e-05,1.0,9.999999747378752e-05
0.12376444041728973,0.949999988079071,0.00011584990133997052,1.0,9.999999747378752e-05
0.1271020919084549,0.949999988079071,0.00016384217742597683,1.0,9.999999747378752e-05
0.13368646800518036,0.949999988079071,8.010090969037264e-05,1.0,9.999999747378752e-05
0.13815081119537354,0.949999988079071,7.052472938084975e-05,1.0,9.999999747378752e-05
0.14044705033302307,0.949999988079071,5.009329179301858e-05,1.0,9.999999747378752e-05
0.14219163358211517,0.949999988079071,5.922729469602928e-05,1.0,9.999999747378752e-05
0.14315684139728546,0.949999988079071,5.9556422638706866e-05,1.0,9.999999747378752e-05
0.1412898302078247,0.949999988079071,0.00020653471583500504,1.0,9.999999747378752e-05
0.13928386569023132,0.949999988079071,4.976485652150586e-05,1.0,9.999999747378752e-05
0.13460911810398102,0.949999988079071,0.0001603039330802858,1.0,9.999999747378752e-05
0.12347863614559174,0.949999988079071,4.848212483921088e-05,1.0,9.999999747378752e-05
0.11727868020534515,0.949999988079071,6.62184800603427e-05,1.0,9.999999747378752e-05
0.11397093534469604,0.949999988079071,6.359805702231825e-05,1.0,9.999999747378752e-05
0.11250519752502441,0.949999988079071,4.3519197788555175e-05,1.0,9.999999747378752e-05
0.1120530217885971,0.949999988079071,5.828425346408039e-05,1.0,9.999999747378752e-05
0.11353284120559692,0.949999988079071,6.177295072120614e-05,1.0,9.999999747378752e-05
0.1150064468383789,0.949999988079071,6.297106010606512e-05,1.0,9.999999747378752e-05
0.11744867265224457,0.949999988079071,7.61012255679816e-05,1.0,9.999999747378752e-05
0.12082326412200928,0.949999988079071,4.6589058183599266e-05,1.0,9.999999747378752e-05
0.12396136671304703,0.949999988079071,5.802660743938759e-05,1.0,9.999999747378752e-05
0.12706127762794495,0.949999988079071,4.998112126486376e-05,1.0,9.999999747378752e-05
0.13012166321277618,0.949999988079071,4.618818129529245e-05,1.0,9.999999747378752e-05
0.13253027200698853,0.949999988079071,4.86407385324128e-05,1.0,9.999999747378752e-05
0.1339326947927475,0.949999988079071,4.505082470132038e-05,1.0,9.999999747378752e-05
0.13425453007221222,0.949999988079071,8.573970990255475e-05,1.0,9.999999747378752e-05
0.1362563818693161,0.949999988079071,0.00012772708214470185,1.0,9.999999747378752e-05
0.13710780441761017,0.949999988079071,4.1707137279445304e-05,1.0,9.999999747378752e-05
0.1380561888217926,0.949999988079071,5.5246410192921756e-05,1.0,9.999999747378752e-05
0.13855981826782227,0.949999988079071,5.201908497838303e-05,1.0,9.999999747378752e-05
0.13723760843276978,0.949999988079071,0.0003243758372263983,1.0,9.999999747378752e-05
0.13033385574817657,0.949999988079071,7.273241644725203e-05,1.0,9.999999747378752e-05
0.12377136945724487,0.949999988079071,5.410743033280596e-05,1.0,9.999999747378752e-05
0.12021299451589584,0.949999988079071,7.173485064413399e-05,1.0,9.999999747378752e-05
0.1168331503868103,0.949999988079071,5.573661183007061e-05,1.0,9.999999747378752e-05
0.11246254295110703,0.949999988079071,0.00017100661643780767,1.0,9.999999747378752e-05
0.10944719612598419,0.949999988079071,4.6589889825554566e-05,1.0,9.999999747378752e-05
0.10800477117300034,0.949999988079071,9.229507850250229e-05,1.0,9.999999747378752e-05
0.10627132654190063,0.949999988079071,6.497588183265179e-05,1.0,9.999999747378752e-05
0.10614267736673355,0.949999988079071,4.923383530694991e-05,1.0,9.999999747378752e-05
0.10542996227741241,0.949999988079071,8.197973511414602e-05,1.0,9.999999747378752e-05
0.10495612770318985,0.949999988079071,5.710698169423267e-05,1.0,9.999999747378752e-05
0.10474918782711029,0.949999988079071,5.193839897401631e-05,1.0,9.999999747378752e-05
0.10520227253437042,0.949999988079071,5.5457344569731506e-05,1.0,9.999999747378752e-05
0.10677677392959595,0.949999988079071,5.505918452399783e-05,1.0,9.999999747378752e-05
0.10805483907461166,0.949999988079071,8.036631043069064e-05,1.0,9.999999747378752e-05
0.11109950393438339,0.949999988079071,7.061993383103982e-05,1.0,9.999999747378752e-05
0.11356091499328613,0.949999988079071,4.5255818258738144e-05,1.0,9.999999747378752e-05
0.11542534828186035,0.949999988079071,4.6771556662861256e-05,1.0,9.999999747378752e-05
0.1171194538474083,0.949999988079071,6.632268632529303e-05,1.0,9.999999747378752e-05
0.12053108215332031,0.949999988079071,0.00010625859722495079,1.0,9.999999747378752e-05
0.12255913019180298,0.949999988079071,4.409348694025539e-05,1.0,9.999999747378752e-05
0.12365859746932983,0.949999988079071,5.696175066987053e-05,1.0,9.999999747378752e-05
0.12489267438650131,0.949999988079071,6.303314148681238e-05,1.0,9.999999747378752e-05
0.12388722598552704,0.949999988079071,6.991282571107149e-05,1.0,9.999999747378752e-05
0.12373094260692596,0.949999988079071,5.343417578842491e-05,1.0,9.999999747378752e-05
0.12311036884784698,0.949999988079071,4.716069088317454e-05,1.0,9.999999747378752e-05
0.1233043447136879,0.949999988079071,4.552311002044007e-05,1.0,9.999999747378752e-05
0.12372656166553497,0.949999988079071,4.517687484622002e-05,1.0,9.999999747378752e-05
0.12644079327583313,0.949999988079071,0.00013348139182198793,1.0,9.999999747378752e-05
0.12908224761486053,0.949999988079071,4.5851797767682e-05,1.0,9.999999747378752e-05
0.13125590980052948,0.949999988079071,6.864735332783312e-05,1.0,9.999999747378752e-05
0.13302893936634064,0.949999988079071,5.1680080650839956e-05,1.0,9.999999747378752e-05
0.13343235850334167,0.949999988079071,4.858334941673093e-05,1.0,9.999999747378752e-05
0.13402046263217926,0.949999988079071,0.00010716190445236862,1.0,9.999999747378752e-05
0.13527344167232513,0.949999988079071,4.7717709094285965e-05,1.0,9.999999747378752e-05
0.13669171929359436,0.949999988079071,3.5675094477483074e-05,1.0,9.999999747378752e-05
0.136875718832016,0.949999988079071,5.801385705126449e-05,1.0,9.999999747378752e-05
0.13695082068443298,0.949999988079071,5.822320963488892e-05,1.0,9.999999747378752e-05
0.13660985231399536,0.949999988079071,0.00011776599276345224,1.0,9.999999747378752e-05
0.1364172101020813,0.949999988079071,3.9901472700876187e-05,1.0,9.999999747378752e-05
0.13595670461654663,0.949999988079071,4.387486915220506e-05,1.0,9.999999747378752e-05
0.13592436909675598,0.949999988079071,4.532913299044594e-05,1.0,9.999999747378752e-05
0.13533422350883484,0.949999988079071,6.021032459102571e-05,1.0,9.999999747378752e-05
0.13519501686096191,0.949999988079071,6.79653458064422e-05,1.0,9.999999747378752e-05
0.1350693702697754,0.949999988079071,4.1582871199352665e-05,1.0,9.999999747378752e-05
0.13511183857917786,0.949999988079071,4.699645432992838e-05,1.0,9.999999747378752e-05
0.1348148137331009,0.949999988079071,4.784769844263792e-05,1.0,9.999999747378752e-05
0.13680049777030945,0.949999988079071,7.949670762172901e-05,1.0,9.999999747378752e-05
0.1369505673646927,0.949999988079071,5.3280046267900615e-05,1.0,9.999999747378752e-05
0.13745327293872833,0.949999988079071,4.480124189285561e-05,1.0,9.999999747378752e-05
0.13712093234062195,0.949999988079071,5.211746174609289e-05,1.0,9.999999747378752e-05
0.13747014105319977,0.949999988079071,6.547905431943945e-05,1.0,9.999999747378752e-05
0.13824447989463806,0.949999988079071,4.292659796192311e-05,1.0,9.999999747378752e-05
0.13936050236225128,0.949999988079071,6.228314196050632e-05,1.0,9.999999747378752e-05
0.1398041546344757,0.949999988079071,4.2839394882321355e-05,1.0,9.999999747378752e-05
0.1395666003227234,0.949999988079071,9.84195212367922e-05,1.0,9.999999747378752e-05
0.13881580531597137,0.949999988079071,7.910417625680565e-05,1.0,9.999999747378752e-05
0.13798221945762634,0.949999988079071,7.469669071724638e-05,1.0,9.999999747378752e-05
0.13788491487503052,0.949999988079071,3.649754289654083e-05,1.0,9.999999747378752e-05
0.13729478418827057,0.949999988079071,7.505496614612639e-05,1.0,9.999999747378752e-05
0.13728873431682587,0.949999988079071,0.00013265704255900347,1.0,9.999999747378752e-05
0.137222021818161,0.949999988079071,5.0490670400904494e-05,1.0,9.999999747378752e-05
0.13976958394050598,0.949999988079071,0.00010436942102387547,1.0,9.999999747378752e-05
0.14237762987613678,0.949999988079071,5.599249052465893e-05,1.0,9.999999747378752e-05
0.14458468556404114,0.949999988079071,9.608272157493047e-05,1.0,9.999999747378752e-05
0.1442975252866745,0.949999988079071,4.312549936003052e-05,1.0,9.999999747378752e-05
0.1424015313386917,0.949999988079071,5.8758872910402715e-05,1.0,9.999999747378752e-05
0.14073088765144348,0.949999988079071,5.5441504082409664e-05,1.0,9.999999747378752e-05
0.13810613751411438,0.949999988079071,3.932040235667955e-05,1.0,9.999999747378752e-05
0.13472780585289001,0.949999988079071,5.5208431876963e-05,1.0,9.999999747378752e-05
0.13113358616828918,0.949999988079071,0.00016658006279612891,1.0,9.999999747378752e-05
0.12852703034877777,0.949999988079071,3.348843201820273e-05,1.0,9.999999747378752e-05
0.1269805133342743,0.949999988079071,6.172909634187818e-05,1.0,9.999999747378752e-05
0.12600290775299072,0.949999988079071,3.6720063508255405e-05,1.0,9.999999747378752e-05
0.1257907897233963,0.949999988079071,5.826429551234469e-05,1.0,9.999999747378752e-05
0.1256079524755478,0.949999988079071,3.759121464099735e-05,1.0,9.999999747378752e-05
0.12577946484088898,0.949999988079071,4.898306069662794e-05,1.0,9.999999747378752e-05
0.12629401683807373,0.949999988079071,6.662269152002409e-05,1.0,9.999999747378752e-05
0.12617501616477966,0.949999988079071,9.748799202498048e-05,1.0,9.999999747378752e-05
0.1298641711473465,0.949999988079071,4.943764361087233e-05,1.0,9.999999747378752e-05
0.132971853017807,0.949999988079071,5.04758172610309e-05,1.0,9.999999747378752e-05
0.13461226224899292,0.949999988079071,6.126884327386505e-05,1.0,9.999999747378752e-05
0.13460862636566162,0.949999988079071,7.110473234206438e-05,1.0,9.999999747378752e-05
0.13568127155303955,0.949999988079071,4.8171880189329384e-05,1.0,9.999999747378752e-05
0.13662438094615936,0.949999988079071,0.00013835573336109518,1.0,9.999999747378752e-05
0.13922658562660217,0.949999988079071,4.460016862140037e-05,1.0,9.999999747378752e-05
0.14215190708637238,0.949999988079071,4.0051562973530966e-05,1.0,9.999999747378752e-05
0.14339172840118408,0.949999988079071,3.680510926642455e-05,1.0,9.999999747378752e-05
0.14431485533714294,0.949999988079071,3.8491666782647374e-05,1.0,9.999999747378752e-05
0.144948348402977,0.949999988079071,4.243766379659064e-05,1.0,9.999999747378752e-05
0.14512665569782257,0.949999988079071,5.105275122332387e-05,1.0,9.999999747378752e-05
0.14480116963386536,0.949999988079071,3.9542460581287744e-05,1.0,9.999999747378752e-05
0.14358310401439667,0.949999988079071,5.732646823162213e-05,1.0,9.999999747378752e-05
0.14255103468894958,0.949999988079071,5.2860075084026906e-05,1.0,9.999999747378752e-05
0.14169849455356598,0.949999988079071,4.34421825048048e-05,1.0,9.999999747378752e-05
0.14047777652740479,0.949999988079071,5.123565497342497e-05,1.0,9.999999747378752e-05
0.13965579867362976,0.949999988079071,3.684305629576556e-05,1.0,9.999999747378752e-05
0.13920176029205322,0.949999988079071,4.111206071684137e-05,1.0,9.999999747378752e-05
0.139228954911232,0.949999988079071,8.017489599296824e-05,1.0,9.999999747378752e-05
0.13962969183921814,0.949999988079071,4.502370284171775e-05,1.0,9.999999747378752e-05
0.1393139809370041,0.949999988079071,6.665041146334261e-05,1.0,9.999999747378752e-05
0.14024046063423157,0.949999988079071,4.132177418796346e-05,1.0,9.999999747378752e-05
0.14114169776439667,0.949999988079071,5.3864434448769316e-05,1.0,9.999999747378752e-05
0.14211052656173706,0.949999988079071,3.81436384486733e-05,1.0,9.999999747378752e-05
0.14113156497478485,0.949999988079071,8.805670076981187e-05,1.0,9.999999747378752e-05
0.13917537033557892,0.949999988079071,4.3620209908112884e-05,1.0,9.999999747378752e-05
0.13800059258937836,0.949999988079071,4.37248068919871e-05,1.0,9.999999747378752e-05
0.13756319880485535,0.949999988079071,4.015379672637209e-05,1.0,9.999999747378752e-05
0.1374977082014084,0.949999988079071,3.755157740670256e-05,1.0,9.999999747378752e-05
0.13815195858478546,0.949999988079071,5.832912283949554e-05,1.0,9.999999747378752e-05
0.1385716199874878,0.949999988079071,4.159193231316749e-05,1.0,9.999999747378752e-05
0.13828179240226746,0.949999988079071,3.8033485179767015e-05,1.0,9.999999747378752e-05
0.138662651181221,0.949999988079071,7.257483448483982e-05,1.0,9.999999747378752e-05
0.13943755626678467,0.949999988079071,5.8244376123184336e-05,1.0,9.999999747378752e-05
0.13982780277729034,0.949999988079071,4.630114563042298e-05,1.0,9.999999747378752e-05
0.13927264511585236,0.949999988079071,4.268952834536321e-05,1.0,9.999999747378752e-05
0.13819818198680878,0.949999988079071,4.906142130494118e-05,1.0,9.999999747378752e-05
0.13551929593086243,0.949999988079071,9.711611055536195e-05,1.0,9.999999747378752e-05
0.1358136683702469,0.949999988079071,6.385880842572079e-05,1.0,9.999999747378752e-05
0.13571974635124207,0.949999988079071,3.949671663576737e-05,1.0,9.999999747378752e-05
0.13597866892814636,0.949999988079071,4.075444012414664e-05,1.0,9.999999747378752e-05
0.13357038795948029,0.949999988079071,5.872538313269615e-05,1.0,9.999999747378752e-05
0.13196486234664917,0.949999988079071,3.595498201320879e-05,1.0,9.999999747378752e-05
0.1298210620880127,0.949999988079071,8.554231462767347e-05,1.0,9.999999747378752e-05
0.12442628294229507,0.949999988079071,7.591216126456857e-05,1.0,9.999999747378752e-05
0.12235355377197266,0.949999988079071,4.757719143526629e-05,1.0,9.999999747378752e-05
0.12318043410778046,0.949999988079071,0.00016608333971817045,1.0,9.999999747378752e-05
0.13455505669116974,0.949999988079071,0.00012731129972962663,1.0,9.999999747378752e-05
0.1484682261943817,0.949999988079071,8.319708940689452e-05,1.0,9.999999747378752e-05
0.15681664645671844,0.949999988079071,5.481153493747115e-05,1.0,9.999999747378752e-05
0.16214697062969208,0.949999988079071,3.8517190114362164e-05,1.0,9.999999747378752e-05
0.16436468064785004,0.949999988079071,4.8539369890931995e-05,1.0,9.999999747378752e-05
0.1645755171775818,0.949999988079071,4.967534114257433e-05,1.0,9.999999747378752e-05
0.16238901019096375,0.949999988079071,4.8478576354682444e-05,1.0,9.999999747378752e-05
0.1592405140399933,0.949999988079071,3.7602681550197305e-05,1.0,9.999999747378752e-05
0.15435203909873962,0.949999988079071,7.121232338249683e-05,1.0,9.999999747378752e-05
0.14953473210334778,0.949999988079071,3.599026458687149e-05,1.0,9.999999747378752e-05
0.14642253518104553,0.949999988079071,5.392846069298685e-05,1.0,9.999999747378752e-05
0.14122921228408813,0.949999988079071,0.00010103311360580847,1.0,9.999999747378752e-05
0.13820317387580872,0.949999988079071,5.605890764854848e-05,1.0,9.999999747378752e-05
0.1344442069530487,0.949999988079071,0.00025953068106900903,1.0,9.999999747378752e-05
0.1287222057580948,0.949999988079071,4.896141035715118e-05,1.0,9.999999747378752e-05
0.12532106041908264,0.949999988079071,4.742648307001218e-05,1.0,9.999999747378752e-05
0.12317123264074326,0.949999988079071,3.209511778550223e-05,1.0,9.999999747378752e-05
0.12220704555511475,0.949999988079071,3.753631499421317e-05,1.0,9.999999747378752e-05
0.12119551002979279,0.949999988079071,0.00010085107642225921,1.0,9.999999747378752e-05
0.12104246765375137,0.949999988079071,6.302651599980891e-05,1.0,9.999999747378752e-05
0.12125198543071747,0.949999988079071,3.584605510695837e-05,1.0,9.999999747378752e-05
0.1219002977013588,0.949999988079071,3.3234963484574107e-05,1.0,9.999999747378752e-05
0.12253530323505402,0.949999988079071,3.8074418989708646e-05,1.0,9.999999747378752e-05
0.12218677997589111,0.949999988079071,3.490618619252928e-05,1.0,9.999999747378752e-05
0.1221969872713089,0.949999988079071,5.415749110397883e-05,1.0,9.999999747378752e-05
0.12227144092321396,0.949999988079071,3.5543114790925756e-05,1.0,9.999999747378752e-05
0.12274627387523651,0.949999988079071,3.150728734908625e-05,1.0,9.999999747378752e-05
0.12377146631479263,0.949999988079071,4.042682339786552e-05,1.0,9.999999747378752e-05
0.12497413158416748,0.949999988079071,5.5446289479732513e-05,1.0,9.999999747378752e-05
0.12623976171016693,0.949999988079071,5.862890757271089e-05,1.0,9.999999747378752e-05
0.12890274822711945,0.949999988079071,0.0001987726987863425,1.0,9.999999747378752e-05
0.1388644278049469,0.949999988079071,3.559057877282612e-05,1.0,9.999999747378752e-05
0.14504975080490112,0.949999988079071,4.239676636643708e-05,1.0,9.999999747378752e-05
0.14903680980205536,0.949999988079071,2.9447658016579224e-05,1.0,9.999999747378752e-05
0.15178072452545166,0.949999988079071,3.352423300384544e-05,1.0,9.999999747378752e-05
0.1530628502368927,0.949999988079071,4.112287533644121e-05,1.0,9.999999747378752e-05
0.1522262990474701,0.949999988079071,3.650410653790459e-05,1.0,9.999999747378752e-05
0.15082433819770813,0.949999988079071,3.6358877696329725e-05,1.0,9.999999747378752e-05
0.1496063768863678,0.949999988079071,4.5052376663079485e-05,1.0,9.999999747378752e-05
0.14523367583751678,0.949999988079071,0.0001626584038604051,1.0,9.999999747378752e-05
0.14003945887088776,0.949999988079071,3.8953709008637816e-05,1.0,9.999999747378752e-05
0.13718369603157043,0.949999988079071,5.56006416445598e-05,1.0,9.999999747378752e-05
0.1340811401605606,0.949999988079071,3.230141446692869e-05,1.0,9.999999747378752e-05
0.13199688494205475,0.949999988079071,2.9572669154731558e-05,1.0,9.999999747378752e-05
0.13336515426635742,0.949999988079071,0.00013108919010846877,1.0,9.999999747378752e-05
0.13727280497550964,0.949999988079071,3.57063916453626e-05,1.0,9.999999747378752e-05
0.13985255360603333,0.949999988079071,5.9820644673891364e-05,1.0,9.999999747378752e-05
0.14180967211723328,0.949999988079071,4.4964853805140594e-05,1.0,9.999999747378752e-05
0.1431380957365036,0.949999988079071,3.6713953159051015e-05,1.0,9.999999747378752e-05
0.14295035600662231,0.949999988079071,3.48240057064686e-05,1.0,9.999999747378752e-05
0.14208276569843292,0.949999988079071,3.7462385080289096e-05,1.0,9.999999747378752e-05
0.14070084691047668,0.949999988079071,5.3601690160576255e-05,1.0,9.999999747378752e-05
0.13874025642871857,0.949999988079071,6.586463932762854e-05,1.0,9.999999747378752e-05
0.13811428844928741,0.949999988079071,0.00012177681637695059,1.0,9.999999747378752e-05
0.12730848789215088,0.949999988079071,0.0003020761054358445,1.0,9.999999747378752e-05
0.10707636922597885,0.949999988079071,3.527357475832105e-05,1.0,9.999999747378752e-05
0.09553229808807373,0.949999988079071,4.7923120291670784e-05,1.0,9.999999747378752e-05
0.089542455971241,0.949999988079071,5.180413136258721e-05,1.0,9.999999747378752e-05
0.08738060295581818,0.949999988079071,3.599459523684345e-05,1.0,9.999999747378752e-05
0.08677823841571808,0.949999988079071,4.146407663938589e-05,1.0,9.999999747378752e-05
0.08852217346429825,0.949999988079071,0.00010368507646489889,1.0,9.999999747378752e-05
0.09409462660551071,0.949999988079071,3.2096550421556457e-05,1.0,9.999999747378752e-05
0.10136678069829941,0.949999988079071,6.520203860418405e-05,1.0,9.999999747378752e-05
0.1078621968626976,0.949999988079071,4.1507255809847264e-05,1.0,9.999999747378752e-05
0.11399240791797638,0.949999988079071,5.4482420819113034e-05,1.0,9.999999747378752e-05
0.11845407634973526,0.949999988079071,3.110657416982576e-05,1.0,9.999999747378752e-05
0.12169383466243744,0.949999988079071,3.3586756035219875e-05,1.0,9.999999747378752e-05
0.12460330873727798,0.949999988079071,3.826523789030034e-05,1.0,9.999999747378752e-05
0.1257789134979248,0.949999988079071,2.8054980066372082e-05,1.0,9.999999747378752e-05
0.12704676389694214,0.949999988079071,3.7865648482693357e-05,1.0,9.999999747378752e-05
0.1277538686990738,0.949999988079071,5.9803023759741336e-05,1.0,9.999999747378752e-05
0.12852634489536285,0.949999988079071,3.283501282567158e-05,1.0,9.999999747378752e-05
0.1299201250076294,0.949999988079071,5.921108968323097e-05,1.0,9.999999747378752e-05
0.13311395049095154,0.949999988079071,9.244463872164488e-05,1.0,9.999999747378752e-05
0.13614365458488464,0.949999988079071,3.8373854476958516e-05,1.0,9.999999747378752e-05
0.13704481720924377,0.949999988079071,4.799758899025619e-05,1.0,9.999999747378752e-05
0.1369011104106903,0.949999988079071,4.808753947145305e-05,1.0,9.999999747378752e-05
0.1373925507068634,0.949999988079071,3.398264161660336e-05,1.0,9.999999747378752e-05
0.13809974491596222,0.949999988079071,3.339061076985672e-05,1.0,9.999999747378752e-05
0.13836365938186646,0.949999988079071,4.40758463810198e-05,1.0,9.999999747378752e-05
0.1389588862657547,0.949999988079071,6.58591598039493e-05,1.0,9.999999747378752e-05
0.13985075056552887,0.949999988079071,3.500135208014399e-05,1.0,9.999999747378752e-05
0.14107158780097961,0.949999988079071,5.057611997472122e-05,1.0,9.999999747378752e-05
0.1397395133972168,0.949999988079071,6.439604112529196e-05,1.0,9.999999747378752e-05
0.1399335116147995,0.949999988079071,2.7342047542333602e-05,1.0,9.999999747378752e-05
0.14379605650901794,0.949999988079071,0.00019418443116592243,1.0,9.999999747378752e-05
0.15455327928066254,0.949999988079071,5.071095438324846e-05,1.0,9.999999747378752e-05
0.16425375640392303,0.949999988079071,4.046500253025442e-05,1.0,9.999999747378752e-05
0.16968105733394623,0.949999988079071,7.674484804738313e-05,1.0,9.999999747378752e-05
0.17209812998771667,0.949999988079071,4.525522672338411e-05,1.0,9.999999747378752e-05
0.17305758595466614,0.949999988079071,3.9743568049743774e-05,1.0,9.999999747378752e-05
0.1738141030073166,0.949999988079071,2.9355875449255107e-05,1.0,9.999999747378752e-05
0.17390723526477814,0.949999988079071,3.295196293038316e-05,1.0,9.999999747378752e-05
0.17328225076198578,0.949999988079071,3.231334558222443e-05,1.0,9.999999747378752e-05
0.17189601063728333,0.949999988079071,4.295687249395996e-05,1.0,9.999999747378752e-05
0.16947148740291595,0.949999988079071,5.18100947374478e-05,1.0,9.999999747378752e-05
0.16733762621879578,0.949999988079071,2.8728475444950164e-05,1.0,9.999999747378752e-05
0.16481706500053406,0.949999988079071,3.490793751552701e-05,1.0,9.999999747378752e-05
0.16250385344028473,0.949999988079071,3.2200446003116665e-05,1.0,9.999999747378752e-05
0.159942626953125,0.949999988079071,3.119795110251289e-05,1.0,9.999999747378752e-05
0.15735316276550293,0.949999988079071,2.9729756352026016e-05,1.0,9.999999747378752e-05
0.1558421552181244,0.949999988079071,5.2278448856668545e-05,1.0,9.999999747378752e-05
0.15250661969184875,0.949999988079071,6.422168225981296e-05,1.0,9.999999747378752e-05
0.14389899373054504,0.949999988079071,3.052175452467054e-05,1.0,9.999999747378752e-05
0.13807126879692078,0.949999988079071,3.257427015341818e-05,1.0,9.999999747378752e-05
0.13404510915279388,0.949999988079071,3.068412188440561e-05,1.0,9.999999747378752e-05
0.13254660367965698,0.949999988079071,4.350718736532144e-05,1.0,9.999999747378752e-05
0.13147467374801636,0.949999988079071,2.72838631644845e-05,1.0,9.999999747378752e-05
0.1310560554265976,0.949999988079071,2.9363222711253912e-05,1.0,9.999999747378752e-05
0.1338438242673874,0.949999988079071,5.943493451923132e-05,1.0,9.999999747378752e-05
0.13800525665283203,0.949999988079071,3.609246414271183e-05,1.0,9.999999747378752e-05
0.13997669517993927,0.949999988079071,4.1011815483216196e-05,1.0,9.999999747378752e-05
0.14300104975700378,0.949999988079071,6.930729286978022e-05,1.0,9.999999747378752e-05
0.1491520255804062,0.949999988079071,4.1143575072055685e-05,1.0,9.999999747378752e-05
0.1537373960018158,0.949999988079071,3.306407525087707e-05,1.0,9.999999747378752e-05
0.15474897623062134,0.949999988079071,2.9542663833126424e-05,1.0,9.999999747378752e-05
0.15509600937366486,0.949999988079071,0.00011044196435250342,1.0,9.999999747378752e-05
0.14992551505565643,0.949999988079071,3.649983846116811e-05,1.0,9.999999747378752e-05
0.14631451666355133,0.949999988079071,4.592556724674069e-05,1.0,9.999999747378752e-05
0.14459237456321716,0.949999988079071,0.00011633609974524007,1.0,9.999999747378752e-05
0.1429571658372879,0.949999988079071,4.17452298279386e-05,1.0,9.999999747378752e-05
0.1410737782716751,0.949999988079071,3.752067423192784e-05,1.0,9.999999747378752e-05
0.13988681137561798,0.949999988079071,3.751574695343152e-05,1.0,9.999999747378752e-05
0.13974004983901978,0.949999988079071,3.449468276812695e-05,1.0,9.999999747378752e-05
0.13995078206062317,0.949999988079071,3.866086917696521e-05,1.0,9.999999747378752e-05
0.13932344317436218,0.949999988079071,7.10683707438875e-05,1.0,9.999999747378752e-05
0.13810938596725464,0.949999988079071,3.3936595718842e-05,1.0,9.999999747378752e-05
0.13851292431354523,0.949999988079071,2.8704611031571405e-05,1.0,9.999999747378752e-05
0.1401742696762085,0.949999988079071,2.7827850863104687e-05,1.0,9.999999747378752e-05
0.14106422662734985,0.949999988079071,4.784639313584194e-05,1.0,9.999999747378752e-05
0.14156882464885712,0.949999988079071,3.513188639772125e-05,1.0,9.999999747378752e-05
0.14266863465309143,0.949999988079071,2.6929172599921e-05,1.0,9.999999747378752e-05
0.14427438378334045,0.949999988079071,2.9931124663562515e-05,1.0,9.999999747378752e-05
0.14560464024543762,0.949999988079071,6.0775536258006466e-05,1.0,9.999999747378752e-05
0.14734205603599548,0.949999988079071,0.00010594581253826618,1.0,9.999999747378752e-05
0.14759957790374756,0.949999988079071,3.410360077396035e-05,1.0,9.999999747378752e-05
0.14843590557575226,0.949999988079071,2.5701618142193183e-05,1.0,9.999999747378752e-05
0.14986202120780945,0.949999988079071,8.524370277882554e-05,1.0,9.999999747378752e-05
0.14851434528827667,0.949999988079071,2.7693653828464447e-05,1.0,9.999999747378752e-05
0.14593586325645447,0.949999988079071,5.108021578053013e-05,1.0,9.999999747378752e-05
0.1426832377910614,0.949999988079071,4.693853770731948e-05,1.0,9.999999747378752e-05
0.14069727063179016,0.949999988079071,2.4383571872022004e-05,1.0,9.999999747378752e-05
0.13910801708698273,0.949999988079071,3.265163250034675e-05,1.0,9.999999747378752e-05
0.1377473771572113,0.949999988079071,3.3669787080725654e-05,1.0,9.999999747378752e-05
0.13649143278598785,0.949999988079071,2.8823082539020105e-05,1.0,9.999999747378752e-05
0.13461054861545563,0.949999988079071,7.341356540564447e-05,1.0,9.999999747378752e-05
0.13383635878562927,0.949999988079071,2.9998454556334765e-05,1.0,9.999999747378752e-05
0.13340380787849426,0.949999988079071,2.605085610412061e-05,1.0,9.999999747378752e-05
0.1331779658794403,0.949999988079071,3.509296220727265e-05,1.0,9.999999747378752e-05
0.13364166021347046,0.949999988079071,3.276482311775908e-05,1.0,9.999999747378752e-05
0.13273325562477112,0.949999988079071,2.7910463541047647e-05,1.0,9.999999747378752e-05
0.13169248402118683,0.949999988079071,3.953361920139287e-05,1.0,9.999999747378752e-05
0.12972597777843475,0.949999988079071,4.6423183084698395e-05,1.0,9.999999747378752e-05
0.12863615155220032,0.949999988079071,4.545681003946811e-05,1.0,9.999999747378752e-05
0.12679925560951233,0.949999988079071,2.3328428505919872e-05,1.0,9.999999747378752e-05
0.1256227195262909,0.949999988079071,3.2976387592498214e-05,1.0,9.999999747378752e-05
0.12583623826503754,0.949999988079071,2.3029176372801884e-05,1.0,9.999999747378752e-05
0.12620288133621216,0.949999988079071,2.876719372579828e-05,1.0,9.999999747378752e-05
0.1278952658176422,0.949999988079071,5.292888090480119e-05,1.0,9.999999747378752e-05
0.12813100218772888,0.949999988079071,5.1843443361576644e-05,1.0,9.999999747378752e-05
0.13046787679195404,0.949999988079071,2.2059225011616944e-05,1.0,9.999999747378752e-05
0.1322978287935257,0.949999988079071,3.879903815686703e-05,1.0,9.999999747378752e-05
0.1359226107597351,0.949999988079071,6.159479089546948e-05,1.0,9.999999747378752e-05
0.13764706254005432,0.949999988079071,2.8273166390135884e-05,1.0,9.999999747378752e-05
0.13987202942371368,0.949999988079071,4.231246966810431e-05,1.0,9.999999747378752e-05
0.1402946412563324,0.949999988079071,3.626625766628422e-05,1.0,9.999999747378752e-05
0.14064767956733704,0.949999988079071,3.4586225228849796e-05,1.0,9.999999747378752e-05
0.14142242074012756,0.949999988079071,2.7594230050453917e-05,1.0,9.999999747378752e-05
0.1412639021873474,0.949999988079071,3.5577823291532694e-05,1.0,9.999999747378752e-05
0.1402699202299118,0.949999988079071,6.737970979884267e-05,1.0,9.999999747378752e-05
0.14131569862365723,0.949999988079071,2.7738851349567996e-05,1.0,9.999999747378752e-05
0.14230509102344513,0.949999988079071,6.116489093983546e-05,1.0,9.999999747378752e-05
0.14350777864456177,0.949999988079071,2.297030368936248e-05,1.0,9.999999747378752e-05
0.143691748380661,0.949999988079071,3.074794221902266e-05,1.0,9.999999747378752e-05
0.14370211958885193,0.949999988079071,2.5373022799612956e-05,1.0,9.999999747378752e-05
0.14333882927894592,0.949999988079071,4.026605311082676e-05,1.0,9.999999747378752e-05
0.1434517353773117,0.949999988079071,3.439981956034899e-05,1.0,9.999999747378752e-05
0.1428927779197693,0.949999988079071,3.319385432405397e-05,1.0,9.999999747378752e-05
0.14124436676502228,0.949999988079071,0.00010409323731437325,1.0,9.999999747378752e-05
0.14245638251304626,0.949999988079071,3.44765001500491e-05,1.0,9.999999747378752e-05
0.14215819537639618,0.949999988079071,2.2798997451900505e-05,1.0,9.999999747378752e-05
0.14170801639556885,0.949999988079071,2.280200096720364e-05,1.0,9.999999747378752e-05
0.14076511561870575,0.949999988079071,3.27981892041862e-05,1.0,9.999999747378752e-05
0.14003242552280426,0.949999988079071,5.064701836090535e-05,1.0,9.999999747378752e-05
0.1403711587190628,0.949999988079071,3.169127739965916e-05,1.0,9.999999747378752e-05
0.14096997678279877,0.949999988079071,2.871185315598268e-05,1.0,9.999999747378752e-05
0.14155468344688416,0.949999988079071,2.7338163636159152e-05,1.0,9.999999747378752e-05
0.1407032012939453,0.949999988079071,5.799436694360338e-05,1.0,9.999999747378752e-05
0.1428442895412445,0.949999988079071,7.005079532973468e-05,1.0,9.999999747378752e-05
0.14717817306518555,0.949999988079071,2.4449844931950793e-05,1.0,9.999999747378752e-05
0.15082994103431702,0.949999988079071,5.850385277881287e-05,1.0,9.999999747378752e-05
0.15378817915916443,0.949999988079071,3.892354143317789e-05,1.0,9.999999747378752e-05
0.15574367344379425,0.949999988079071,4.168015730101615e-05,1.0,9.999999747378752e-05
0.15600255131721497,0.949999988079071,3.7426259586936796e-05,1.0,9.999999747378752e-05
0.1563318520784378,0.949999988079071,3.0879332189215344e-05,1.0,9.999999747378752e-05
0.15588024258613586,0.949999988079071,3.5933961044065654e-05,1.0,9.999999747378752e-05
0.15685179829597473,0.949999988079071,3.402495640330017e-05,1.0,9.999999747378752e-05
0.15605737268924713,0.949999988079071,2.818976863636635e-05,1.0,9.999999747378752e-05
0.1556854248046875,0.949999988079071,3.979670291300863e-05,1.0,9.999999747378752e-05
0.15214160084724426,0.949999988079071,2.9139023536117747e-05,1.0,9.999999747378752e-05
0.1512136161327362,0.949999988079071,4.608146264217794e-05,1.0,9.999999747378752e-05
0.150477796792984,0.949999988079071,3.476966667221859e-05,1.0,9.999999747378752e-05
0.15289206802845,0.949999988079071,6.0773481891374104e-05,1.0,9.999999747378752e-05
0.15592260658740997,0.949999988079071,7.959777503856458e-05,1.0,9.999999747378752e-05
0.1584373265504837,0.949999988079071,2.3568586766486987e-05,1.0,9.999999747378752e-05
0.16022825241088867,0.949999988079071,2.530067358748056e-05,1.0,9.999999747378752e-05
0.16108927130699158,0.949999988079071,3.4596548357512805e-05,1.0,9.999999747378752e-05
0.16151347756385803,0.949999988079071,2.8289745023357683e-05,1.0,9.999999747378752e-05
0.16144315898418427,0.949999988079071,3.422101617616136e-05,1.0,9.999999747378752e-05
0.16075333952903748,0.949999988079071,3.220569160475861e-05,1.0,9.999999747378752e-05
0.15924294292926788,0.949999988079071,2.4247202964033933e-05,1.0,9.999999747378752e-05
0.15830588340759277,0.949999988079071,2.79446550848661e-05,1.0,9.999999747378752e-05
0.15767690539360046,0.949999988079071,3.260663070250303e-05,1.0,9.999999747378752e-05
0.15466292202472687,0.949999988079071,5.8025856560561806e-05,1.0,9.999999747378752e-05
0.15174086391925812,0.949999988079071,3.157646060572006e-05,1.0,9.999999747378752e-05
0.15139010548591614,0.949999988079071,8.33281777886441e-05,1.0,9.999999747378752e-05
0.14922016859054565,0.949999988079071,6.981058686506003e-05,1.0,9.999999747378752e-05
0.14859771728515625,0.949999988079071,4.576403007376939e-05,1.0,9.999999747378752e-05
0.14564406871795654,0.949999988079071,2.9924775299150495e-05,1.0,9.999999747378752e-05
0.1431652009487152,0.949999988079071,5.880602402612567e-05,1.0,9.999999747378752e-05
0.1424412727355957,0.949999988079071,3.7548355612671004e-05,1.0,9.999999747378752e-05
0.14306899905204773,0.949999988079071,2.8603141618077644e-05,1.0,9.999999747378752e-05
0.14352497458457947,0.949999988079071,2.2971766156842932e-05,1.0,9.999999747378752e-05
0.14331218600273132,0.949999988079071,3.0118588620098306e-05,1.0,9.999999747378752e-05
0.14518584311008453,0.949999988079071,5.945088196313009e-05,1.0,9.999999747378752e-05
0.14784011244773865,0.949999988079071,7.224835571832955e-05,1.0,9.999999747378752e-05
0.14936405420303345,0.949999988079071,2.087231259793043e-05,1.0,9.999999747378752e-05
0.14949852228164673,0.949999988079071,4.807498989976011e-05,1.0,9.999999747378752e-05
0.15007856488227844,0.949999988079071,3.743730048881844e-05,1.0,9.999999747378752e-05
0.15027235448360443,0.949999988079071,2.9894334147684276e-05,1.0,9.999999747378752e-05
0.14975769817829132,0.949999988079071,5.202071479288861e-05,1.0,9.999999747378752e-05
0.15041981637477875,0.949999988079071,2.7697992481989787e-05,1.0,9.999999747378752e-05
0.15153387188911438,0.949999988079071,2.5153072783723474e-05,1.0,9.999999747378752e-05
0.1524881273508072,0.949999988079071,2.136097537004389e-05,1.0,9.999999747378752e-05
0.15270940959453583,0.949999988079071,2.3296511790249498e-05,1.0,9.999999747378752e-05
0.15269865095615387,0.949999988079071,4.015210724901408e-05,1.0,9.999999747378752e-05
0.15126825869083405,0.949999988079071,4.674202282330953e-05,1.0,9.999999747378752e-05
0.15075309574604034,0.949999988079071,5.800391809316352e-05,1.0,9.999999747378752e-05
0.15045377612113953,0.949999988079071,2.8926738013979048e-05,1.0,9.999999747378752e-05
0.15095147490501404,0.949999988079071,2.4474362726323305e-05,1.0,9.999999747378752e-05
0.15181858837604523,0.949999988079071,3.5922839015256616e-05,1.0,9.999999747378752e-05
0.15342944860458374,0.949999988079071,5.7092719725915234e-05,1.0,9.999999747378752e-05
0.15360605716705322,0.949999988079071,2.8058597672497852e-05,1.0,9.999999747378752e-05
0.15468139946460724,0.949999988079071,2.783367126539815e-05,1.0,9.999999747378752e-05
0.1544295996427536,0.949999988079071,2.6790574338519946e-05,1.0,9.999999747378752e-05
0.15486888587474823,0.949999988079071,3.255985793657601e-05,1.0,9.999999747378752e-05
0.15394547581672668,0.949999988079071,3.0350100132636726e-05,1.0,9.999999747378752e-05
0.1529918909072876,0.949999988079071,3.9999414002522823e-05,1.0,9.999999747378752e-05
0.15293844044208527,0.949999988079071,1.5964845806593077e-05,1.0,9.999999747378752e-05
0.15268678963184357,0.949999988079071,3.0403132404899226e-05,1.0,9.999999747378752e-05
0.1533336490392685,0.949999988079071,2.732465472945478e-05,1.0,9.999999747378752e-05
0.15321436524391174,0.949999988079071,1.946270713233389e-05,1.0,9.999999747378752e-05
0.15314331650733948,0.949999988079071,3.62051203410374e-05,1.0,9.999999747378752e-05
0.15216867625713348,0.949999988079071,4.237795728840865e-05,1.0,9.999999747378752e-05
0.1522946059703827,0.949999988079071,2.0642823255911934e-05,1.0,9.999999747378752e-05
0.15230967104434967,0.949999988079071,5.7551053032511845e-05,1.0,9.999999747378752e-05
0.15456819534301758,0.949999988079071,2.424349804641679e-05,1.0,9.999999747378752e-05
0.15520912408828735,0.949999988079071,2.0497477817116305e-05,1.0,9.999999747378752e-05
0.15549030900001526,0.949999988079071,3.085807475144975e-05,1.0,9.999999747378752e-05
0.15551063418388367,0.949999988079071,3.360260307090357e-05,1.0,9.999999747378752e-05
0.1553766429424286,0.949999988079071,2.5054027355508877e-05,1.0,9.999999747378752e-05
0.15256237983703613,0.949999988079071,8.051436016103253e-05,1.0,9.999999747378752e-05
0.14973226189613342,0.949999988079071,1.972572899830993e-05,1.0,9.999999747378752e-05
0.14798502624034882,0.949999988079071,2.0626339028240183e-05,1.0,9.999999747378752e-05
0.14207474887371063,0.949999988079071,0.00013888768007745965,1.0,9.999999747378752e-05
0.1273193508386612,0.949999988079071,2.261561203340534e-05,1.0,9.999999747378752e-05
0.11745327711105347,0.949999988079071,2.204501288360916e-05,1.0,9.999999747378752e-05
0.11232086271047592,0.949999988079071,4.267163967597298e-05,1.0,9.999999747378752e-05
0.11263418197631836,0.949999988079071,2.7236706955591217e-05,1.0,9.999999747378752e-05
0.11527490615844727,0.949999988079071,2.998217532876879e-05,1.0,9.999999747378752e-05
0.11780116707086563,0.949999988079071,2.721001219470054e-05,1.0,9.999999747378752e-05
0.1192963495850563,0.949999988079071,5.695202125934884e-05,1.0,9.999999747378752e-05
0.1163427084684372,0.949999988079071,2.6250025985063986e-05,1.0,9.999999747378752e-05
0.11495254188776016,0.949999988079071,2.9772878042422236e-05,1.0,9.999999747378752e-05
0.11603518575429916,0.949999988079071,2.2183419059729203e-05,1.0,9.999999747378752e-05
0.11853612959384918,0.949999988079071,2.1831038247910327e-05,1.0,9.999999747378752e-05
0.12346456199884415,0.949999988079071,3.423735324759036e-05,1.0,9.999999747378752e-05
0.1334962695837021,0.949999988079071,6.062797183403745e-05,1.0,9.999999747378752e-05
0.1452385038137436,0.949999988079071,2.242484479211271e-05,1.0,9.999999747378752e-05
0.15841044485569,0.949999988079071,8.253032210632227e-05,1.0,9.999999747378752e-05
0.17701074481010437,0.949999988079071,3.8352300180122256e-05,1.0,9.999999747378752e-05
0.18865610659122467,0.949999988079071,2.2567853375221602e-05,1.0,9.999999747378752e-05
0.19483979046344757,0.949999988079071,6.259876827243715e-05,1.0,9.999999747378752e-05
0.19250716269016266,0.949999988079071,2.2284801889327355e-05,1.0,9.999999747378752e-05
0.18845278024673462,0.949999988079071,2.3033587785903366e-05,1.0,9.999999747378752e-05
0.18183091282844543,0.949999988079071,4.737622730317525e-05,1.0,9.999999747378752e-05
0.17480579018592834,0.949999988079071,5.477486556628719e-05,1.0,9.999999747378752e-05
0.16766564548015594,0.949999988079071,2.6209073985228316e-05,1.0,9.999999747378752e-05
0.16028852760791779,0.949999988079071,3.225533873774111e-05,1.0,9.999999747378752e-05
0.15363726019859314,0.949999988079071,2.4697426124475896e-05,1.0,9.999999747378752e-05
0.1486528366804123,0.949999988079071,3.303373850940261e-05,1.0,9.999999747378752e-05
0.14515343308448792,0.949999988079071,2.3804426746210083e-05,1.0,9.999999747378752e-05
0.1430720090866089,0.949999988079071,2.0534832583507522e-05,1.0,9.999999747378752e-05
0.1417815387248993,0.949999988079071,2.1925727924099193e-05,1.0,9.999999747378752e-05
0.1405002623796463,0.949999988079071,2.7862943534273653e-05,1.0,9.999999747378752e-05
0.13762028515338898,0.949999988079071,6.150309345684946e-05,1.0,9.999999747378752e-05
0.13577206432819366,0.949999988079071,4.045357418362983e-05,1.0,9.999999747378752e-05
0.1370808184146881,0.949999988079071,2.17997920117341e-05,1.0,9.999999747378752e-05
0.13875578343868256,0.949999988079071,2.3672041425015778e-05,1.0,9.999999747378752e-05
0.14060470461845398,0.949999988079071,1.996408245759085e-05,1.0,9.999999747378752e-05
0.14288946986198425,0.949999988079071,3.236454067518934e-05,1.0,9.999999747378752e-05
0.14382369816303253,0.949999988079071,1.7982349527301265e-05,1.0,9.999999747378752e-05
0.14430774748325348,0.949999988079071,3.280518430983648e-05,1.0,9.999999747378752e-05
0.14437659084796906,0.949999988079071,2.6485074340598657e-05,1.0,9.999999747378752e-05
0.14509406685829163,0.949999988079071,1.8320569506613537e-05,1.0,9.999999747378752e-05
0.14580756425857544,0.949999988079071,2.420922683086246e-05,1.0,9.999999747378752e-05
0.1460423469543457,0.949999988079071,2.857110885088332e-05,1.0,9.999999747378752e-05
0.1471260040998459,0.949999988079071,4.8921901179710406e-05,1.0,9.999999747378752e-05
0.14820852875709534,0.949999988079071,3.658379864646122e-05,1.0,9.999999747378752e-05
0.14932653307914734,0.949999988079071,1.7333504729322158e-05,1.0,9.999999747378752e-05
0.1504727602005005,0.949999988079071,2.807985438266769e-05,1.0,9.999999747378752e-05
0.14850935339927673,0.949999988079071,9.293135517509654e-05,1.0,9.999999747378752e-05
0.1467447578907013,0.949999988079071,5.646039644489065e-05,1.0,9.999999747378752e-05
0.14646713435649872,0.949999988079071,2.1718578864238225e-05,1.0,9.999999747378752e-05
0.14705459773540497,0.949999988079071,1.9166937090631108e-05,1.0,9.999999747378752e-05
0.1471584141254425,0.949999988079071,1.8552288020146078e-05,1.0,9.999999747378752e-05
0.14794781804084778,0.949999988079071,3.569041145965457e-05,1.0,9.999999747378752e-05
0.1470845639705658,0.949999988079071,5.9532093291636554e-05,1.0,9.999999747378752e-05
0.14363093674182892,0.949999988079071,2.3243629038915968e-05,1.0,9.999999747378752e-05
0.1397014707326889,0.949999988079071,8.587179036112502e-05,1.0,9.999999747378752e-05
0.13837338984012604,0.949999988079071,2.268498210469261e-05,1.0,9.999999747378752e-05
0.13743054866790771,0.949999988079071,1.974736078409478e-05,1.0,9.999999747378752e-05
0.1366216242313385,0.949999988079071,4.1850313573377206e-05,1.0,9.999999747378752e-05
0.13678264617919922,0.949999988079071,3.6370852467371154e-05,1.0,9.999999747378752e-05
0.1375226527452469,0.949999988079071,3.622335352702066e-05,1.0,9.999999747378752e-05
0.13871699571609497,0.949999988079071,1.6778421195340342e-05,1.0,9.999999747378752e-05
0.14007529616355896,0.949999988079071,2.0174996825517157e-05,1.0,9.999999747378752e-05
0.14139162003993988,0.949999988079071,2.571232289483305e-05,1.0,9.999999747378752e-05
0.14342878758907318,0.949999988079071,2.9416500547085887e-05,1.0,9.999999747378752e-05
0.1439649760723114,0.949999988079071,1.7121853670687414e-05,1.0,9.999999747378752e-05
0.14557316899299622,0.949999988079071,1.979193984880112e-05,1.0,9.999999747378752e-05
0.14654670655727386,0.949999988079071,3.074804408242926e-05,1.0,9.999999747378752e-05
0.14878571033477783,0.949999988079071,2.496460801921785e-05,1.0,9.999999747378752e-05
0.15064331889152527,0.949999988079071,2.0192723968648352e-05,1.0,9.999999747378752e-05
0.1484442502260208,0.949999988079071,6.504672201117501e-05,1.0,9.999999747378752e-05
0.13973836600780487,0.949999988079071,2.2129134231363422e-05,1.0,9.999999747378752e-05
0.13617444038391113,0.949999988079071,3.408125558053143e-05,1.0,9.999999747378752e-05
0.13541845977306366,0.949999988079071,1.9535610044840722e-05,1.0,9.999999747378752e-05
0.13636061549186707,0.949999988079071,2.31728314247448e-05,1.0,9.999999747378752e-05
0.1382017880678177,0.949999988079071,2.2295896997093223e-05,1.0,9.999999747378752e-05
0.14039461314678192,0.949999988079071,2.035664438153617e-05,1.0,9.999999747378752e-05
0.1424417793750763,0.949999988079071,2.2237888333620504e-05,1.0,9.999999747378752e-05
0.14412032067775726,0.949999988079071,3.172940851072781e-05,1.0,9.999999747378752e-05
0.14781448245048523,0.949999988079071,2.854207414202392e-05,1.0,9.999999747378752e-05
0.15119579434394836,0.949999988079071,1.7040668899426238e-05,1.0,9.999999747378752e-05
0.1528194099664688,0.949999988079071,6.119054196460639e-05,1.0,9.999999747378752e-05
0.15416663885116577,0.949999988079071,2.1374362768256104e-05,1.0,9.999999747378752e-05
0.1555316001176834,0.949999988079071,3.7476322177099064e-05,1.0,9.999999747378752e-05
0.1576579362154007,0.949999988079071,2.1127789659658446e-05,1.0,9.999999747378752e-05
0.15964864194393158,0.949999988079071,3.400076675461605e-05,1.0,9.999999747378752e-05
0.1626078337430954,0.949999988079071,1.9838165826513432e-05,1.0,9.999999747378752e-05
0.16521283984184265,0.949999988079071,2.343885680602398e-05,1.0,9.999999747378752e-05
0.16836485266685486,0.949999988079071,3.860208380501717e-05,1.0,9.999999747378752e-05
0.17051896452903748,0.949999988079071,2.2007516599842346e-05,1.0,9.999999747378752e-05
0.17223195731639862,0.949999988079071,1.701750989013817e-05,1.0,9.999999747378752e-05
0.17377778887748718,0.949999988079071,2.568647905718535e-05,1.0,9.999999747378752e-05
0.17540022730827332,0.949999988079071,3.6061645369045435e-05,1.0,9.999999747378752e-05
0.17670568823814392,0.949999988079071,3.178115039190743e-05,1.0,9.999999747378752e-05
0.1756485402584076,0.949999988079071,2.227636141469702e-05,1.0,9.999999747378752e-05
0.17542552947998047,0.949999988079071,2.7739097640733233e-05,1.0,9.999999747378752e-05
0.17502900958061218,0.949999988079071,3.603808872867376e-05,1.0,9.999999747378752e-05
0.1750340312719345,0.949999988079071,5.05527263158001e-05,1.0,9.999999747378752e-05
0.17468059062957764,0.949999988079071,2.0525896252365784e-05,1.0,9.999999747378752e-05
0.17444664239883423,0.949999988079071,2.459868264850229e-05,1.0,9.999999747378752e-05
0.17348507046699524,0.949999988079071,1.940230249601882e-05,1.0,9.999999747378752e-05
0.17331743240356445,0.949999988079071,2.2470918338513002e-05,1.0,9.999999747378752e-05
0.17269191145896912,0.949999988079071,1.866322672867682e-05,1.0,9.999999747378752e-05
0.17182837426662445,0.949999988079071,1.8958981308969668e-05,1.0,9.999999747378752e-05
0.17048323154449463,0.949999988079071,2.0696106366813184e-05,1.0,9.999999747378752e-05
0.16906866431236267,0.949999988079071,3.305554200778715e-05,1.0,9.999999747378752e-05
0.16876621544361115,0.949999988079071,3.23707950883545e-05,1.0,9.999999747378752e-05
0.16712123155593872,0.949999988079071,3.103298950009048e-05,1.0,9.999999747378752e-05
0.16447371244430542,0.949999988079071,1.4871130406390876e-05,1.0,9.999999747378752e-05
0.16258350014686584,0.949999988079071,2.0192037118249574e-05,1.0,9.999999747378752e-05
0.16200265288352966,0.949999988079071,2.624364278744906e-05,1.0,9.999999747378752e-05
0.1607530415058136,0.949999988079071,1.7939126882993152e-05,1.0,9.999999747378752e-05
0.15921203792095184,0.949999988079071,2.5713788272696547e-05,1.0,9.999999747378752e-05
0.15751591324806213,0.949999988079071,2.553746962803416e-05,1.0,9.999999747378752e-05
0.15611329674720764,0.949999988079071,2.9213472953415475e-05,1.0,9.999999747378752e-05
0.1545049399137497,0.949999988079071,3.035935587831773e-05,1.0,9.999999747378752e-05
0.1516774594783783,0.949999988079071,1.8049381469609217e-05,1.0,9.999999747378752e-05
0.15035738050937653,0.949999988079071,3.293248009867966e-05,1.0,9.999999747378752e-05
0.14990845322608948,0.949999988079071,1.603928722033743e-05,1.0,9.999999747378752e-05
0.14929459989070892,0.949999988079071,5.2851417422061786e-05,1.0,9.999999747378752e-05
0.1507536619901657,0.949999988079071,1.7999395640799776e-05,1.0,9.999999747378752e-05
0.15163695812225342,0.949999988079071,2.2648251615464687e-05,1.0,9.999999747378752e-05
0.15343023836612701,0.949999988079071,2.6838775374926628e-05,1.0,9.999999747378752e-05
0.15485580265522003,0.949999988079071,2.6016850824817084e-05,1.0,9.999999747378752e-05
0.15116992592811584,0.949999988079071,9.610655979486182e-05,1.0,9.999999747378752e-05
0.13956205546855927,0.949999988079071,1.7042884428519757e-05,1.0,9.999999747378752e-05
0.1324707269668579,0.949999988079071,1.9739093477255665e-05,1.0,9.999999747378752e-05
0.12804283201694489,0.949999988079071,4.2978647979907694e-05,1.0,9.999999747378752e-05
0.12845554947853088,0.949999988079071,2.061068262264598e-05,1.0,9.999999747378752e-05
0.1293259710073471,0.949999988079071,2.4549580848542975e-05,1.0,9.999999747378752e-05
0.13094571232795715,0.949999988079071,1.94811185792787e-05,1.0,9.999999747378752e-05
0.13346818089485168,0.949999988079071,1.6055669584602582e-05,1.0,9.999999747378752e-05
0.1359178125858307,0.949999988079071,2.061074337689206e-05,1.0,9.999999747378752e-05
0.13819698989391327,0.949999988079071,3.4849496296374126e-05,1.0,9.999999747378752e-05
0.14014802873134613,0.949999988079071,1.5363562488346362e-05,1.0,9.999999747378752e-05
0.1437036097049713,0.949999988079071,7.231133131426759e-05,1.0,9.999999747378752e-05
0.1463986486196518,0.949999988079071,2.5637325234129093e-05,1.0,9.999999747378752e-05
0.14859364926815033,0.949999988079071,1.6602164760115556e-05,1.0,9.999999747378752e-05
0.15058012306690216,0.949999988079071,1.4204307808540761e-05,1.0,9.999999747378752e-05
0.15192243456840515,0.949999988079071,5.563496524700895e-05,1.0,9.999999747378752e-05
0.15369726717472076,0.949999988079071,1.9190779494238085e-05,1.0,9.999999747378752e-05
0.15456344187259674,0.949999988079071,2.481890987837687e-05,1.0,9.999999747378752e-05
0.15733927488327026,0.949999988079071,3.557316231308505e-05,1.0,9.999999747378752e-05
0.16049902141094208,0.949999988079071,2.2855458519188686e-05,1.0,9.999999747378752e-05
0.1636129468679428,0.949999988079071,1.7415278489352203e-05,1.0,9.999999747378752e-05
0.16616851091384888,0.949999988079071,3.027253769687377e-05,1.0,9.999999747378752e-05
0.16823890805244446,0.949999988079071,1.9785196127486415e-05,1.0,9.999999747378752e-05
0.1691007912158966,0.949999988079071,1.497094053775072e-05,1.0,9.999999747378752e-05
0.17006300389766693,0.949999988079071,2.0465342277020682e-05,1.0,9.999999747378752e-05
0.1696985512971878,0.949999988079071,2.1862231369595976e-05,1.0,9.999999747378752e-05
0.1685120165348053,0.949999988079071,2.3362716456176712e-05,1.0,9.999999747378752e-05
0.16723546385765076,0.949999988079071,4.46661637397483e-05,1.0,9.999999747378752e-05
0.16669757664203644,0.949999988079071,3.3390196767868475e-05,1.0,9.999999747378752e-05
0.16554394364356995,0.949999988079071,2.3284479175345042e-05,1.0,9.999999747378752e-05
0.16401070356369019,0.949999988079071,4.7961567906895654e-05,1.0,9.999999747378752e-05
0.163599893450737,0.949999988079071,1.852606983447913e-05,1.0,9.999999747378752e-05
0.162533700466156,0.949999988079071,1.9597496066126042e-05,1.0,9.999999747378752e-05
0.16298887133598328,0.949999988079071,1.677394102443941e-05,1.0,9.999999747378752e-05
0.16320636868476868,0.949999988079071,2.5176728377118708e-05,1.0,9.999999747378752e-05
0.1670212745666504,0.949999988079071,7.52760679461062e-05,1.0,9.999999747378752e-05
0.17071154713630676,0.949999988079071,2.228380981250666e-05,1.0,9.999999747378752e-05
0.17306597530841827,0.949999988079071,1.7716311049298383e-05,1.0,9.999999747378752e-05
0.17394432425498962,0.949999988079071,2.0101156405871733e-05,1.0,9.999999747378752e-05
0.17493338882923126,0.949999988079071,2.4224047956522553e-05,1.0,9.999999747378752e-05
0.17327316105365753,0.949999988079071,2.835050254361704e-05,1.0,9.999999747378752e-05
0.17265866696834564,0.949999988079071,2.5344428286189215e-05,1.0,9.999999747378752e-05
0.17049971222877502,0.949999988079071,2.2690847981721162e-05,1.0,9.999999747378752e-05
0.16888147592544556,0.949999988079071,1.6089846758404748e-05,1.0,9.999999747378752e-05
0.16714373230934143,0.949999988079071,2.6932093896903096e-05,1.0,9.999999747378752e-05
0.16748455166816711,0.949999988079071,1.6735935787437484e-05,1.0,9.999999747378752e-05
0.16689595580101013,0.949999988079071,2.2237828670768067e-05,1.0,9.999999747378752e-05
0.1645127832889557,0.949999988079071,2.4616138398414476e-05,1.0,9.999999747378752e-05
0.16023926436901093,0.949999988079071,9.79891192400828e-05,1.0,9.999999747378752e-05
0.14999470114707947,0.949999988079071,2.7080323343398048e-05,1.0,9.999999747378752e-05
0.14297088980674744,0.949999988079071,1.355761087324936e-05,1.0,9.999999747378752e-05
0.13983109593391418,0.949999988079071,2.8781064611393958e-05,1.0,9.999999747378752e-05
0.14031121134757996,0.949999988079071,2.545510924392147e-05,1.0,9.999999747378752e-05
0.14153726398944855,0.949999988079071,2.4721135559957474e-05,1.0,9.999999747378752e-05
0.1433970034122467,0.949999988079071,1.7887543799588455e-05,1.0,9.999999747378752e-05
0.14749440550804138,0.949999988079071,2.0825302817684134e-05,1.0,9.999999747378752e-05
0.1504477709531784,0.949999988079071,1.3910765483160504e-05,1.0,9.999999747378752e-05
0.153299942612648,0.949999988079071,2.8980374918319284e-05,1.0,9.999999747378752e-05
0.15614716708660126,0.949999988079071,1.779966551112011e-05,1.0,9.999999747378752e-05
0.15901529788970947,0.949999988079071,1.5056570919114166e-05,1.0,9.999999747378752e-05
0.1623646467924118,0.949999988079071,3.0773802427574994e-05,1.0,9.999999747378752e-05
0.16417716443538666,0.949999988079071,1.887636390165426e-05,1.0,9.999999747378752e-05
0.16580653190612793,0.949999988079071,3.98816897359211e-05,1.0,9.999999747378752e-05
0.17061737179756165,0.949999988079071,1.758577873260947e-05,1.0,9.999999747378752e-05
0.17349636554718018,0.949999988079071,2.066414490400348e-05,1.0,9.999999747378752e-05
0.1753375083208084,0.949999988079071,2.307056747667957e-05,1.0,9.999999747378752e-05
0.17632797360420227,0.949999988079071,1.5785946015967055e-05,1.0,9.999999747378752e-05
0.1770477294921875,0.949999988079071,3.0569921727874315e-05,1.0,9.999999747378752e-05
0.17695608735084534,0.949999988079071,2.6510305178817362e-05,1.0,9.999999747378752e-05
0.17295707762241364,0.949999988079071,3.431131481193006e-05,1.0,9.999999747378752e-05
0.17133475840091705,0.949999988079071,1.7735013898345642e-05,1.0,9.999999747378752e-05
0.16887253522872925,0.949999988079071,2.1701459627365693e-05,1.0,9.999999747378752e-05
0.16727957129478455,0.949999988079071,1.6438643069704994e-05,1.0,9.999999747378752e-05
0.16488909721374512,0.949999988079071,5.70265285205096e-05,1.0,9.999999747378752e-05
0.1635325849056244,0.949999988079071,2.092564100166783e-05,1.0,9.999999747378752e-05
0.16171586513519287,0.949999988079071,2.9591878774226644e-05,1.0,9.999999747378752e-05
0.161358043551445,0.949999988079071,2.076340460916981e-05,1.0,9.999999747378752e-05
0.16193220019340515,0.949999988079071,2.085657251882367e-05,1.0,9.999999747378752e-05
0.1626490354537964,0.949999988079071,2.0867621788056568e-05,1.0,9.999999747378752e-05
0.16406136751174927,0.949999988079071,1.658757610130124e-05,1.0,9.999999747378752e-05
0.16486506164073944,0.949999988079071,1.5843277287785897e-05,1.0,9.999999747378752e-05
0.16565470397472382,0.949999988079071,3.125334615106112e-05,1.0,9.999999747378752e-05
0.16680189967155457,0.949999988079071,1.806116106308764e-05,1.0,9.999999747378752e-05
0.16776299476623535,0.949999988079071,1.2196451643831097e-05,1.0,9.999999747378752e-05
0.16634082794189453,0.949999988079071,4.57172209280543e-05,1.0,9.999999747378752e-05
0.16458739340305328,0.949999988079071,1.5288474241970106e-05,1.0,9.999999747378752e-05
0.162522554397583,0.949999988079071,2.688527893042192e-05,1.0,9.999999747378752e-05
0.16500458121299744,0.949999988079071,4.314309408073314e-05,1.0,9.999999747378752e-05
0.16994358599185944,0.949999988079071,1.604959506948944e-05,1.0,9.999999747378752e-05
0.17324939370155334,0.949999988079071,2.794681604427751e-05,1.0,9.999999747378752e-05
0.1760161966085434,0.949999988079071,3.846092076855712e-05,1.0,9.999999747378752e-05
0.17806944251060486,0.949999988079071,2.0389447308843954e-05,1.0,9.999999747378752e-05
0.17317667603492737,0.949999988079071,5.7058761740336195e-05,1.0,9.999999747378752e-05
0.16750946640968323,0.949999988079071,0.00010068899719044566,1.0,9.999999747378752e-05
0.16674000024795532,0.949999988079071,1.9046604575123637e-05,1.0,9.999999747378752e-05
0.16625013947486877,0.949999988079071,2.4560857855249197e-05,1.0,9.999999747378752e-05
