val_loss,val_accuracy,loss,accuracy,lr
0.5915623903274536,0.699999988079071,0.6116607904434204,0.6875,0.0010000000474974513
0.5581626892089844,0.699999988079071,0.3926922917366028,0.7875000238418579,0.0010000000474974513
0.5476289391517639,0.699999988079071,0.26246098279953,0.887499988079071,0.0010000000474974513
0.5223027467727661,0.699999988079071,0.2578449368476868,0.862500011920929,0.0010000000474974513
0.5549045205116272,0.699999988079071,0.22898494601249694,0.887499988079071,0.0010000000474974513
0.5956308841705322,0.699999988079071,0.22377296686172485,0.9125000238418579,0.0010000000474974513
0.5256625413894653,0.699999988079071,0.23176587820053102,0.9125000238418579,0.0010000000474974513
0.4366825222969055,0.699999988079071,0.15921972393989564,0.949999988079071,0.0010000000474974513
0.40705132484436035,0.75,0.18091171532869338,0.8999999761581421,0.0010000000474974513
0.4300118386745453,0.8999999761581421,0.22178971618413926,0.9125000238418579,0.0010000000474974513
0.4557930529117584,1.0,0.16842223852872848,0.887499988079071,0.0010000000474974513
0.5104452967643738,0.8999999761581421,0.10128704160451889,0.949999988079071,0.0010000000474974513
0.666354775428772,0.3499999940395355,0.09002228379249573,0.9750000238418579,0.0010000000474974513
0.9519580602645874,0.30000001192092896,0.08010572493076325,0.9624999761581421,0.0010000000474974513
1.2074283361434937,0.30000001192092896,0.07564669251441955,0.9750000238418579,0.0010000000474974513
1.3431618213653564,0.30000001192092896,0.06437211781740189,0.9750000238418579,0.0010000000474974513
1.4445335865020752,0.30000001192092896,0.047129475697875026,0.987500011920929,0.0010000000474974513
1.5482673645019531,0.30000001192092896,0.04720479398965836,0.9750000238418579,0.0010000000474974513
1.6833263635635376,0.30000001192092896,0.02536829710006714,0.987500011920929,0.0010000000474974513
1.8876348733901978,0.30000001192092896,0.01833663135766983,1.0,0.0010000000474974513
2.2885656356811523,0.30000001192092896,0.045607997477054595,0.987500011920929,0.0010000000474974513
2.6797890663146973,0.30000001192092896,0.045476241409778594,0.9750000238418579,0.0010000000474974513
2.6699330806732178,0.30000001192092896,0.0456470787525177,0.987500011920929,0.0010000000474974513
2.3888561725616455,0.30000001192092896,0.02131883166730404,1.0,0.0010000000474974513
2.1515936851501465,0.30000001192092896,0.012024166435003281,1.0,0.0010000000474974513
1.98110032081604,0.30000001192092896,0.020288944244384766,1.0,0.0010000000474974513
1.921038269996643,0.30000001192092896,0.012804293259978294,1.0,0.0010000000474974513
2.105924129486084,0.30000001192092896,0.020464245229959488,1.0,0.0010000000474974513
2.54172945022583,0.30000001192092896,0.015523978881537915,1.0,0.0010000000474974513
3.019618511199951,0.30000001192092896,0.012451721169054509,1.0,0.0010000000474974513
3.4658255577087402,0.30000001192092896,0.015322747081518174,1.0,0.0010000000474974513
3.8691470623016357,0.30000001192092896,0.007666268572211266,1.0,0.0010000000474974513
4.220127105712891,0.30000001192092896,0.0065207339823246,1.0,0.0010000000474974513
4.5420074462890625,0.30000001192092896,0.006596019119024276,1.0,0.0010000000474974513
4.783659934997559,0.30000001192092896,0.011106929555535317,1.0,0.0010000000474974513
4.961014747619629,0.30000001192092896,0.004649551957845688,1.0,0.0010000000474974513
5.086490631103516,0.30000001192092896,0.015054302290081978,0.987500011920929,0.0010000000474974513
5.190738201141357,0.30000001192092896,0.004038645885884762,1.0,0.0010000000474974513
5.3570966720581055,0.30000001192092896,0.002391199395060539,1.0,0.0010000000474974513
5.506712913513184,0.30000001192092896,0.008214212581515312,1.0,0.0010000000474974513
5.69374942779541,0.30000001192092896,0.025579188019037247,1.0,0.0010000000474974513
5.729030609130859,0.30000001192092896,0.003527697827666998,1.0,0.0010000000474974513
5.428454399108887,0.30000001192092896,0.03164306879043579,0.9750000238418579,0.0010000000474974513
4.834105014801025,0.30000001192092896,0.0495982114225626,0.987500011920929,0.0010000000474974513
4.486371040344238,0.30000001192092896,0.009826421365141868,1.0,0.0010000000474974513
4.733481407165527,0.30000001192092896,0.10649093985557556,0.9624999761581421,0.0010000000474974513
4.794493198394775,0.30000001192092896,0.012868662644177676,1.0,0.0010000000474974513
4.164425849914551,0.30000001192092896,0.04236172437667847,0.987500011920929,0.0010000000474974513
2.8864288330078125,0.30000001192092896,0.0641901895403862,0.987500011920929,0.0010000000474974513
2.833620548248291,0.30000001192092896,0.1543489873409271,0.9375,0.0010000000474974513
3.273622989654541,0.30000001192092896,0.061153475940227506,0.987500011920929,0.0010000000474974513
3.2277920246124268,0.30000001192092896,0.04129182584583759,1.0,0.0010000000474974513
3.1977195739746094,0.30000001192092896,0.03759821355342865,1.0,0.0010000000474974513
3.3791251182556152,0.30000001192092896,0.03542267829179764,0.987500011920929,0.0010000000474974513
3.6039721965789795,0.30000001192092896,0.034173688292503356,1.0,0.0010000000474974513
3.869969129562378,0.30000001192092896,0.020966486632823945,1.0,0.0010000000474974513
4.145229339599609,0.30000001192092896,0.014650704711675644,1.0,0.0010000000474974513
4.346043109893799,0.30000001192092896,0.011366741079837085,1.0,0.0010000000474974513
4.4449944496154785,0.30000001192092896,0.013643291592597962,1.0,0.0010000000474974513
4.55104398727417,0.30000001192092896,0.009495238587260247,1.0,0.0005000000237487257
4.801563262939453,0.30000001192092896,0.01689299792051315,1.0,0.0005000000237487257
5.031062126159668,0.30000001192092896,0.0038859078660607336,1.0,0.0005000000237487257
5.201821327209473,0.30000001192092896,0.005964922346174717,1.0,0.0005000000237487257
5.338405609130859,0.30000001192092896,0.005332533502951264,1.0,0.0005000000237487257
5.488219261169434,0.30000001192092896,0.007163826376199722,1.0,0.0005000000237487257
5.592580318450928,0.30000001192092896,0.0035049214493483305,1.0,0.0005000000237487257
5.689652442932129,0.30000001192092896,0.004700988531112671,1.0,0.0005000000237487257
5.75522518157959,0.30000001192092896,0.0023407828994095325,1.0,0.0005000000237487257
5.732360363006592,0.30000001192092896,0.00321482140570879,1.0,0.0005000000237487257
5.6572442054748535,0.30000001192092896,0.0018058796878904105,1.0,0.0005000000237487257
5.658662796020508,0.30000001192092896,0.0030895888805389403,1.0,0.0005000000237487257
5.723584175109863,0.30000001192092896,0.0012540350668132304,1.0,0.0005000000237487257
5.7670464515686035,0.30000001192092896,0.0014730963855981826,1.0,0.0005000000237487257
5.805242538452148,0.30000001192092896,0.0015308986417949199,1.0,0.0005000000237487257
5.83357048034668,0.30000001192092896,0.0016517076641321183,1.0,0.0005000000237487257
5.833359241485596,0.30000001192092896,0.004066826775670052,1.0,0.0005000000237487257
5.859669208526611,0.30000001192092896,0.001290684938430786,1.0,0.0005000000237487257
5.899170398712158,0.30000001192092896,0.002228524349629879,1.0,0.0005000000237487257
5.913666725158691,0.30000001192092896,0.0011075680376961827,1.0,0.0005000000237487257
5.9222588539123535,0.30000001192092896,0.0011172543745487928,1.0,0.0005000000237487257
5.922870635986328,0.30000001192092896,0.0008761769975535571,1.0,0.0005000000237487257
5.936227321624756,0.30000001192092896,0.0009329485241323709,1.0,0.0005000000237487257
5.954643726348877,0.30000001192092896,0.0011197952553629875,1.0,0.0005000000237487257
5.977419376373291,0.30000001192092896,0.0010260685812681913,1.0,0.0005000000237487257
5.995145797729492,0.30000001192092896,0.0012887304183095694,1.0,0.0005000000237487257
6.037529945373535,0.30000001192092896,0.0008506745100021363,1.0,0.0005000000237487257
6.061029434204102,0.30000001192092896,0.0006794943707063794,1.0,0.0005000000237487257
6.066935062408447,0.30000001192092896,0.0007997418753802777,1.0,0.0005000000237487257
6.060004234313965,0.30000001192092896,0.001131837978027761,1.0,0.0005000000237487257
6.061122894287109,0.30000001192092896,0.0006678849109448493,1.0,0.0005000000237487257
6.067568302154541,0.30000001192092896,0.0006717524025589228,1.0,0.0005000000237487257
6.078002452850342,0.30000001192092896,0.0007563225459307432,1.0,0.0005000000237487257
6.088401794433594,0.30000001192092896,0.0006872848607599735,1.0,0.0005000000237487257
6.093430995941162,0.30000001192092896,0.0007562774932011962,1.0,0.0005000000237487257
6.117469310760498,0.30000001192092896,0.0008421042934060097,1.0,0.0005000000237487257
6.160597324371338,0.30000001192092896,0.0013148250058293343,1.0,0.0005000000237487257
6.2249040603637695,0.30000001192092896,0.0005776172911282629,1.0,0.0005000000237487257
6.291446685791016,0.30000001192092896,0.0015732450410723686,1.0,0.0005000000237487257
6.334668159484863,0.30000001192092896,0.0008829092374071478,1.0,0.0005000000237487257
6.3545660972595215,0.30000001192092896,0.0006984833395108581,1.0,0.0005000000237487257
6.376079559326172,0.30000001192092896,0.0006727407686412335,1.0,0.0005000000237487257
6.3900909423828125,0.30000001192092896,0.0007372783962637186,1.0,0.0005000000237487257
6.377834320068359,0.30000001192092896,0.0005306769511662423,1.0,0.0005000000237487257
6.373301982879639,0.30000001192092896,0.0008369224611669779,1.0,0.0005000000237487257
6.359250068664551,0.30000001192092896,0.0006194462417624891,1.0,0.0005000000237487257
6.336280345916748,0.30000001192092896,0.0008328516036272049,1.0,0.0005000000237487257
6.314996242523193,0.30000001192092896,0.0005524723557755352,1.0,0.0005000000237487257
6.303088188171387,0.30000001192092896,0.0011069823987782002,1.0,0.0005000000237487257
6.315618515014648,0.30000001192092896,0.0005003218073397874,1.0,0.0005000000237487257
6.284962177276611,0.30000001192092896,0.0006572399055585265,1.0,0.0002500000118743628
6.268072605133057,0.30000001192092896,0.0013177516870200635,1.0,0.0002500000118743628
6.221745491027832,0.30000001192092896,0.0011429071426391601,1.0,0.0002500000118743628
6.159791946411133,0.30000001192092896,0.00046782366698607805,1.0,0.0002500000118743628
6.082781791687012,0.30000001192092896,0.0007070718798786402,1.0,0.0002500000118743628
5.999111652374268,0.30000001192092896,0.0012290703598409891,1.0,0.0002500000118743628
5.94085693359375,0.30000001192092896,0.0005967257777228952,1.0,0.0002500000118743628
5.867672920227051,0.30000001192092896,0.0019569240510463716,1.0,0.0002500000118743628
5.8453497886657715,0.30000001192092896,0.000773405097424984,1.0,0.0002500000118743628
5.807074546813965,0.30000001192092896,0.00044978493824601176,1.0,0.0002500000118743628
5.766575813293457,0.30000001192092896,0.0007848116103559733,1.0,0.0002500000118743628
5.702727317810059,0.30000001192092896,0.0005744359106756747,1.0,0.0002500000118743628
5.652647495269775,0.30000001192092896,0.0008143637795001268,1.0,0.0002500000118743628
5.599455833435059,0.30000001192092896,0.0007421083282679319,1.0,0.0002500000118743628
5.542067527770996,0.30000001192092896,0.0004539375833701342,1.0,0.0002500000118743628
5.476834774017334,0.30000001192092896,0.0006127726286649704,1.0,0.0002500000118743628
5.422321319580078,0.30000001192092896,0.0004981689213309437,1.0,0.0002500000118743628
5.3722028732299805,0.30000001192092896,0.00042014313512481747,1.0,0.0002500000118743628
5.326737403869629,0.30000001192092896,0.00047916485054884107,1.0,0.0002500000118743628
5.282436370849609,0.30000001192092896,0.000460575707256794,1.0,0.0002500000118743628
5.223640441894531,0.30000001192092896,0.0004345289868069813,1.0,0.0002500000118743628
5.1691179275512695,0.30000001192092896,0.0004659424535930157,1.0,0.0002500000118743628
5.119441509246826,0.30000001192092896,0.00043154465965926646,1.0,0.0002500000118743628
5.054089069366455,0.30000001192092896,0.00048444867134094237,1.0,0.0002500000118743628
4.992127895355225,0.30000001192092896,0.0004060018458403647,1.0,0.0002500000118743628
4.898593902587891,0.30000001192092896,0.0012820524629205466,1.0,0.0002500000118743628
4.813162803649902,0.30000001192092896,0.00042013084748759866,1.0,0.0002500000118743628
4.722685813903809,0.30000001192092896,0.0003029457962838933,1.0,0.0002500000118743628
4.641599655151367,0.30000001192092896,0.00042856920044869183,1.0,0.0002500000118743628
4.557859897613525,0.30000001192092896,0.00040036077843979,1.0,0.0002500000118743628
4.47374963760376,0.30000001192092896,0.000421817263122648,1.0,0.0002500000118743628
4.399669170379639,0.30000001192092896,0.00034648564760573206,1.0,0.0002500000118743628
4.323347568511963,0.30000001192092896,0.0004511717997957021,1.0,0.0002500000118743628
4.355327129364014,0.30000001192092896,0.005581171158701182,1.0,0.0002500000118743628
4.493297576904297,0.30000001192092896,0.00044166171574033797,1.0,0.0002500000118743628
4.573729515075684,0.30000001192092896,0.0006454435642808676,1.0,0.0002500000118743628
4.657052040100098,0.30000001192092896,0.0013697010930627585,1.0,0.0002500000118743628
4.631560802459717,0.30000001192092896,0.002399483695626259,1.0,0.0002500000118743628
4.591181755065918,0.30000001192092896,0.0011196605628356338,1.0,0.0002500000118743628
4.1968865394592285,0.30000001192092896,0.019550407864153387,0.987500011920929,0.0002500000118743628
3.60481333732605,0.30000001192092896,0.0005679100519046188,1.0,0.0002500000118743628
3.2001938819885254,0.30000001192092896,0.0028004870750010014,1.0,0.0002500000118743628
3.103940486907959,0.30000001192092896,0.014252297580242157,1.0,0.0002500000118743628
3.2644639015197754,0.30000001192092896,0.04398773349821568,0.987500011920929,0.0002500000118743628
3.0777769088745117,0.30000001192092896,0.04513266086578369,0.987500011920929,0.0002500000118743628
2.583484172821045,0.30000001192092896,0.0037849055603146552,1.0,0.0002500000118743628
2.326411247253418,0.3499999940395355,0.0031862675212323667,1.0,0.0002500000118743628
2.2801921367645264,0.3499999940395355,0.003269805386662483,1.0,0.0002500000118743628
2.3273112773895264,0.3499999940395355,0.0031413826625794174,1.0,0.0002500000118743628
2.3940589427948,0.4000000059604645,0.002621402032673359,1.0,0.0002500000118743628
2.4269280433654785,0.4000000059604645,0.002686786698177457,1.0,0.0001250000059371814
2.4537692070007324,0.3499999940395355,0.0020155336358584465,1.0,0.0001250000059371814
2.486027956008911,0.3499999940395355,0.0026463707908988,1.0,0.0001250000059371814
2.5142433643341064,0.3499999940395355,0.0023729256354272366,1.0,0.0001250000059371814
2.571852207183838,0.3499999940395355,0.002730780094861984,1.0,0.0001250000059371814
2.629647731781006,0.3499999940395355,0.002020648401230574,1.0,0.0001250000059371814
2.6796202659606934,0.3499999940395355,0.0024475747952237724,1.0,0.0001250000059371814
2.7231364250183105,0.3499999940395355,0.0017022235319018365,1.0,0.0001250000059371814
3.050570011138916,0.3499999940395355,0.02808607742190361,0.987500011920929,0.0001250000059371814
3.6338565349578857,0.30000001192092896,0.0021638673730194568,1.0,0.0001250000059371814
4.1749677658081055,0.30000001192092896,0.012405101954936982,0.987500011920929,0.0001250000059371814
4.606682777404785,0.30000001192092896,0.0017198014305904509,1.0,0.0001250000059371814
4.914791584014893,0.30000001192092896,0.001399448630400002,1.0,0.0001250000059371814
5.128817558288574,0.30000001192092896,0.00301163624972105,1.0,0.0001250000059371814
5.241527557373047,0.30000001192092896,0.0017044624546542764,1.0,0.0001250000059371814
5.284984588623047,0.30000001192092896,0.0028878877870738505,1.0,0.0001250000059371814
5.2934088706970215,0.30000001192092896,0.0020149582996964455,1.0,0.0001250000059371814
5.28421688079834,0.30000001192092896,0.002324977796524763,1.0,0.0001250000059371814
5.233717918395996,0.30000001192092896,0.0017153377993963659,1.0,0.0001250000059371814
5.17464542388916,0.30000001192092896,0.0011089703533798457,1.0,0.0001250000059371814
5.096439361572266,0.30000001192092896,0.002290252037346363,1.0,0.0001250000059371814
5.024720668792725,0.30000001192092896,0.0009814888704568147,1.0,0.0001250000059371814
4.9471282958984375,0.30000001192092896,0.001185021409764886,1.0,0.0001250000059371814
4.824052333831787,0.30000001192092896,0.0023501673713326454,1.0,0.0001250000059371814
4.68258810043335,0.30000001192092896,0.0020097877830266954,1.0,0.0001250000059371814
4.5644731521606445,0.30000001192092896,0.0008475475711748004,1.0,0.0001250000059371814
4.440131664276123,0.30000001192092896,0.00202973741106689,1.0,0.0001250000059371814
4.285823345184326,0.30000001192092896,0.0007975459098815918,1.0,0.0001250000059371814
4.143265247344971,0.30000001192092896,0.0008062891196459532,1.0,0.0001250000059371814
4.003413200378418,0.30000001192092896,0.0006683383835479617,1.0,0.0001250000059371814
3.8608460426330566,0.30000001192092896,0.0007839982863515615,1.0,0.0001250000059371814
3.735889434814453,0.30000001192092896,0.0008832472376525402,1.0,0.0001250000059371814
3.617443799972534,0.30000001192092896,0.0008428448345512152,1.0,0.0001250000059371814
3.4865500926971436,0.30000001192092896,0.0006307978183031082,1.0,0.0001250000059371814
3.3616766929626465,0.30000001192092896,0.00043804983142763375,1.0,0.0001250000059371814
3.1871063709259033,0.30000001192092896,0.006023753527551889,1.0,0.0001250000059371814
3.0343804359436035,0.30000001192092896,0.0006625748937949538,1.0,0.0001250000059371814
2.8763256072998047,0.30000001192092896,0.00048486075247637926,1.0,0.0001250000059371814
2.7493724822998047,0.30000001192092896,0.001235447102226317,1.0,0.0001250000059371814
2.6459593772888184,0.30000001192092896,0.0010250004008412362,1.0,0.0001250000059371814
2.5443661212921143,0.30000001192092896,0.0014597050845623015,1.0,0.0001250000059371814
2.415663957595825,0.30000001192092896,0.0032971758861094712,1.0,0.0001250000059371814
2.3135437965393066,0.30000001192092896,0.0004450156819075346,1.0,0.0001250000059371814
2.2159571647644043,0.30000001192092896,0.0004821460461243987,1.0,0.0001250000059371814
2.1245594024658203,0.30000001192092896,0.0005275988951325417,1.0,0.0001250000059371814
2.033289670944214,0.3499999940395355,0.0004764558281749487,1.0,0.0001250000059371814
1.9566352367401123,0.3499999940395355,0.0017295059747993945,1.0,0.0001250000059371814
1.8456213474273682,0.3499999940395355,0.0005240528029389679,1.0,0.0001250000059371814
1.7484350204467773,0.3499999940395355,0.0018995312508195638,1.0,0.0001250000059371814
1.623910903930664,0.4000000059604645,0.0004914459655992687,1.0,0.0001250000059371814
1.5621083974838257,0.4000000059604645,0.002614527055993676,1.0,9.999999747378752e-05
1.4830490350723267,0.4000000059604645,0.001342171337455511,1.0,9.999999747378752e-05
1.4286916255950928,0.44999998807907104,0.0006268993252888322,1.0,9.999999747378752e-05
1.38246750831604,0.44999998807907104,0.0007787879090756178,1.0,9.999999747378752e-05
1.3292204141616821,0.5,0.00034600046928972005,1.0,9.999999747378752e-05
1.2716963291168213,0.5,0.0003407432930544019,1.0,9.999999747378752e-05
1.2167705297470093,0.5,0.00036729046260006724,1.0,9.999999747378752e-05
1.1611698865890503,0.5,0.0005968637065961957,1.0,9.999999747378752e-05
1.1161038875579834,0.550000011920929,0.00038901723455637694,1.0,9.999999747378752e-05
1.062828779220581,0.550000011920929,0.0005267051281407475,1.0,9.999999747378752e-05
1.0211710929870605,0.550000011920929,0.000502885552123189,1.0,9.999999747378752e-05
0.9855022430419922,0.550000011920929,0.0009838632307946683,1.0,9.999999747378752e-05
0.9393967390060425,0.550000011920929,0.0004382556944619864,1.0,9.999999747378752e-05
0.8917457461357117,0.6000000238418579,0.00034675908973440527,1.0,9.999999747378752e-05
0.8477128744125366,0.6000000238418579,0.00033518201089464126,1.0,9.999999747378752e-05
0.8010287284851074,0.6000000238418579,0.00035049114376306534,1.0,9.999999747378752e-05
0.7626392245292664,0.6000000238418579,0.00042205993086099627,1.0,9.999999747378752e-05
0.7298641800880432,0.6000000238418579,0.0008404090302065014,1.0,9.999999747378752e-05
0.6940371990203857,0.6000000238418579,0.00034933110000565646,1.0,9.999999747378752e-05
0.6625190377235413,0.6000000238418579,0.000448454130673781,1.0,9.999999747378752e-05
0.6284928321838379,0.6000000238418579,0.0003272061236202717,1.0,9.999999747378752e-05
0.588940441608429,0.6000000238418579,0.0010727433953434228,1.0,9.999999747378752e-05
0.5598254203796387,0.6499999761581421,0.00030921209836378696,1.0,9.999999747378752e-05
0.5317257046699524,0.699999988079071,0.0003337192290928215,1.0,9.999999747378752e-05
0.5043876767158508,0.699999988079071,0.004501276183873415,1.0,9.999999747378752e-05
0.45548686385154724,0.699999988079071,0.0003528152941726148,1.0,9.999999747378752e-05
0.42090243101119995,0.699999988079071,0.0004704950493760407,1.0,9.999999747378752e-05
0.3852941393852234,0.699999988079071,0.0002919285325333476,1.0,9.999999747378752e-05
0.3605181574821472,0.699999988079071,0.0009280248079448939,1.0,9.999999747378752e-05
0.33463233709335327,0.75,0.0005616179434582591,1.0,9.999999747378752e-05
0.31066519021987915,0.800000011920929,0.00033369255252182486,1.0,9.999999747378752e-05
0.28832516074180603,0.8500000238418579,0.00030715192551724615,1.0,9.999999747378752e-05
0.2692030370235443,0.8500000238418579,0.00034171243314631285,1.0,9.999999747378752e-05
0.2521812319755554,0.8999999761581421,0.00038629095652140675,1.0,9.999999747378752e-05
0.23859596252441406,0.949999988079071,0.0005017726798541844,1.0,9.999999747378752e-05
0.22435422241687775,0.949999988079071,0.0003443159279413521,1.0,9.999999747378752e-05
0.21237894892692566,0.949999988079071,0.0004087942186743021,1.0,9.999999747378752e-05
0.19699794054031372,0.949999988079071,0.00036181819159537555,1.0,9.999999747378752e-05
0.1841631829738617,0.949999988079071,0.0003449695068411529,1.0,9.999999747378752e-05
0.17200326919555664,0.949999988079071,0.0003134344005957246,1.0,9.999999747378752e-05
0.16335178911685944,0.949999988079071,0.000347494101151824,1.0,9.999999747378752e-05
0.15438875555992126,0.949999988079071,0.0002567951916716993,1.0,9.999999747378752e-05
0.14398334920406342,0.949999988079071,0.0015287904068827629,1.0,9.999999747378752e-05
0.13682715594768524,0.949999988079071,0.0004307015798985958,1.0,9.999999747378752e-05
0.13304832577705383,0.949999988079071,0.00035171444760635496,1.0,9.999999747378752e-05
0.12668369710445404,0.949999988079071,0.00036752444575540724,1.0,9.999999747378752e-05
0.12066461890935898,0.949999988079071,0.0002658738638274372,1.0,9.999999747378752e-05
0.11371378600597382,0.949999988079071,0.0004197360016405582,1.0,9.999999747378752e-05
0.10980655252933502,0.949999988079071,0.00040177344344556333,1.0,9.999999747378752e-05
0.10299909114837646,0.949999988079071,0.00032448353595100344,1.0,9.999999747378752e-05
0.09905453026294708,0.949999988079071,0.0004398035234771669,1.0,9.999999747378752e-05
0.09393174946308136,0.949999988079071,0.0002989863220136613,1.0,9.999999747378752e-05
0.08909426629543304,0.949999988079071,0.00023773262510076165,1.0,9.999999747378752e-05
0.08206170797348022,1.0,0.0009292712435126305,1.0,9.999999747378752e-05
0.07655737549066544,1.0,0.00065556769259274,1.0,9.999999747378752e-05
0.07433103024959564,1.0,0.00043661308009177444,1.0,9.999999747378752e-05
0.0707625150680542,1.0,0.000240656005917117,1.0,9.999999747378752e-05
0.06779658049345016,1.0,0.00028026587096974254,1.0,9.999999747378752e-05
0.0630750060081482,1.0,0.0014447723049670457,1.0,9.999999747378752e-05
0.05855929106473923,1.0,0.0011158130364492536,1.0,9.999999747378752e-05
0.05605483800172806,1.0,0.000297144812066108,1.0,9.999999747378752e-05
0.054222237318754196,1.0,0.00048290949780493975,1.0,9.999999747378752e-05
0.05141583830118179,1.0,0.00028822259046137335,1.0,9.999999747378752e-05
0.04908385127782822,1.0,0.0002666651213075966,1.0,9.999999747378752e-05
0.04736154153943062,1.0,0.00029800161137245597,1.0,9.999999747378752e-05
0.04383081942796707,1.0,0.0011731381062418222,1.0,9.999999747378752e-05
0.04055670648813248,1.0,0.00044300863519310953,1.0,9.999999747378752e-05
0.03820056468248367,1.0,0.0002558476116973907,1.0,9.999999747378752e-05
0.036149974912405014,1.0,0.0003596011665649712,1.0,9.999999747378752e-05
0.03421927988529205,1.0,0.00046386148314923046,1.0,9.999999747378752e-05
0.03351181000471115,1.0,0.00041295952396467326,1.0,9.999999747378752e-05
0.03225462883710861,1.0,0.0002678784425370395,1.0,9.999999747378752e-05
0.03105773590505123,1.0,0.0002761686104349792,1.0,9.999999747378752e-05
0.029713865369558334,1.0,0.0002789358462905511,1.0,9.999999747378752e-05
0.028702229261398315,1.0,0.00027873499784618615,1.0,9.999999747378752e-05
0.027536649256944656,1.0,0.000293934450019151,1.0,9.999999747378752e-05
0.026590729132294655,1.0,0.0008095220429822803,1.0,9.999999747378752e-05
0.026307692751288414,1.0,0.0003482278902083635,1.0,9.999999747378752e-05
0.025864850729703903,1.0,0.00047865344677120445,1.0,9.999999747378752e-05
0.025322388857603073,1.0,0.0006155193550512195,1.0,9.999999747378752e-05
0.025167811661958694,1.0,0.00025893381680361924,1.0,9.999999747378752e-05
0.025213828310370445,1.0,0.0004227010766044259,1.0,9.999999747378752e-05
0.024736404418945312,1.0,0.000298137532081455,1.0,9.999999747378752e-05
0.02392437867820263,1.0,0.000417856324929744,1.0,9.999999747378752e-05
0.023408228531479836,1.0,0.0002477995178196579,1.0,9.999999747378752e-05
0.022832132875919342,1.0,0.00022962643997743727,1.0,9.999999747378752e-05
0.02244342304766178,1.0,0.0003174147335812449,1.0,9.999999747378752e-05
0.02159438282251358,1.0,0.000490046595223248,1.0,9.999999747378752e-05
0.020892351865768433,1.0,0.01612309569027275,1.0,9.999999747378752e-05
0.01941920816898346,1.0,0.0005279087461531162,1.0,9.999999747378752e-05
0.018997730687260628,1.0,0.0002694729366339743,1.0,9.999999747378752e-05
0.018466535955667496,1.0,0.0005645104218274355,1.0,9.999999747378752e-05
0.017613861709833145,1.0,0.0074212681502103806,1.0,9.999999747378752e-05
0.016067329794168472,1.0,0.0007641132455319166,1.0,9.999999747378752e-05
0.015436768531799316,1.0,0.000385576079133898,1.0,9.999999747378752e-05
0.015664944425225258,1.0,0.0003788744448684156,1.0,9.999999747378752e-05
0.01657911017537117,1.0,0.0005946276825852693,1.0,9.999999747378752e-05
0.01776268519461155,1.0,0.0005834458163008094,1.0,9.999999747378752e-05
0.01910809986293316,1.0,0.0004848364973440766,1.0,9.999999747378752e-05
0.020570317283272743,1.0,0.00032208546763285996,1.0,9.999999747378752e-05
0.021941520273685455,1.0,0.0005820972379297018,1.0,9.999999747378752e-05
0.023124346509575844,1.0,0.0007189678028225899,1.0,9.999999747378752e-05
0.024112220853567123,1.0,0.0005245744716376067,1.0,9.999999747378752e-05
0.025139743462204933,1.0,0.0003021546930540353,1.0,9.999999747378752e-05
0.025861138477921486,1.0,0.0005096565233543515,1.0,9.999999747378752e-05
0.026132354512810707,1.0,0.0034413974732160567,1.0,9.999999747378752e-05
0.027003031224012375,1.0,0.0005879420088604093,1.0,9.999999747378752e-05
0.02803253009915352,1.0,0.000452921655960381,1.0,9.999999747378752e-05
0.0288290586322546,1.0,0.0003616407280787826,1.0,9.999999747378752e-05
0.02916443906724453,1.0,0.0005197206279262901,1.0,9.999999747378752e-05
0.029790673404932022,1.0,0.00041004512459039686,1.0,9.999999747378752e-05
0.030119463801383972,1.0,0.00037553918082267046,1.0,9.999999747378752e-05
0.030363446101546288,1.0,0.00044685616157948973,1.0,9.999999747378752e-05
0.030416712164878845,1.0,0.00034959734184667466,1.0,9.999999747378752e-05
0.03013882040977478,1.0,0.00028377205599099397,1.0,9.999999747378752e-05
0.028015270829200745,1.0,0.004302080278284848,1.0,9.999999747378752e-05
0.02387910522520542,1.0,0.00031359815620817243,1.0,9.999999747378752e-05
0.021135255694389343,1.0,0.00033259905176237227,1.0,9.999999747378752e-05
0.019255833700299263,1.0,0.00030224589281715455,1.0,9.999999747378752e-05
0.01814120076596737,1.0,0.0003358759626280516,1.0,9.999999747378752e-05
0.017388304695487022,1.0,0.00047980553936213257,1.0,9.999999747378752e-05
0.016628289595246315,1.0,0.00028394709806889296,1.0,9.999999747378752e-05
0.01598549075424671,1.0,0.00033520731376484035,1.0,9.999999747378752e-05
0.015343996696174145,1.0,0.0004363520070910454,1.0,9.999999747378752e-05
0.014940437860786915,1.0,0.0003729357500560582,1.0,9.999999747378752e-05
0.0145708117634058,1.0,0.0002886971808038652,1.0,9.999999747378752e-05
0.014300447888672352,1.0,0.0002973156049847603,1.0,9.999999747378752e-05
0.014061477966606617,1.0,0.0003088015713728964,1.0,9.999999747378752e-05
0.013853834941983223,1.0,0.0003893371671438217,1.0,9.999999747378752e-05
0.013541623950004578,1.0,0.00028771810466423633,1.0,9.999999747378752e-05
0.013650055043399334,1.0,0.0006301242858171463,1.0,9.999999747378752e-05
0.013851484283804893,1.0,0.0002825592353474349,1.0,9.999999747378752e-05
0.01398034580051899,1.0,0.0002625192399136722,1.0,9.999999747378752e-05
0.012686463072896004,1.0,0.009835518198087811,1.0,9.999999747378752e-05
0.010917043313384056,1.0,0.00027461794670671227,1.0,9.999999747378752e-05
0.01028219424188137,1.0,0.0002827122749295086,1.0,9.999999747378752e-05
0.010148839093744755,1.0,0.0003079899353906512,1.0,9.999999747378752e-05
0.010216743685305119,1.0,0.00027562692994251845,1.0,9.999999747378752e-05
0.010362230241298676,1.0,0.0002442513592541218,1.0,9.999999747378752e-05
0.010441097430884838,1.0,0.00027719013742171227,1.0,9.999999747378752e-05
0.010523652657866478,1.0,0.0002739248098805547,1.0,9.999999747378752e-05
0.010513613000512123,1.0,0.0003165912698023021,1.0,9.999999747378752e-05
0.010505770333111286,1.0,0.0002353765012230724,1.0,9.999999747378752e-05
0.010307615622878075,1.0,0.0015887877205386757,1.0,9.999999747378752e-05
0.010244492441415787,1.0,0.00031134453602135184,1.0,9.999999747378752e-05
0.010187501087784767,1.0,0.00024118684232234954,1.0,9.999999747378752e-05
0.010067631490528584,1.0,0.00028348317719064655,1.0,9.999999747378752e-05
0.009984251111745834,1.0,0.00035711657255887985,1.0,9.999999747378752e-05
0.009782744571566582,1.0,0.00030848799797240646,1.0,9.999999747378752e-05
0.009647873230278492,1.0,0.0002859783184248954,1.0,9.999999747378752e-05
0.009509121999144554,1.0,0.00032039032084867357,1.0,9.999999747378752e-05
0.00932195782661438,1.0,0.00028260413091629744,1.0,9.999999747378752e-05
0.009193101897835732,1.0,0.00036234075669199227,1.0,9.999999747378752e-05
0.009028584696352482,1.0,0.0003248170600272715,1.0,9.999999747378752e-05
0.008914495818316936,1.0,0.0002782239229418337,1.0,9.999999747378752e-05
0.008808941580355167,1.0,0.0002210060483776033,1.0,9.999999747378752e-05
0.008677800185978413,1.0,0.0005053163040429354,1.0,9.999999747378752e-05
0.008530749008059502,1.0,0.0003168295137584209,1.0,9.999999747378752e-05
0.00843132846057415,1.0,0.00024620099575258794,1.0,9.999999747378752e-05
0.008360068313777447,1.0,0.00018636318272911013,1.0,9.999999747378752e-05
0.008292821235954762,1.0,0.0002278051688335836,1.0,9.999999747378752e-05
0.008254153653979301,1.0,0.00027714871685020627,1.0,9.999999747378752e-05
0.008228088729083538,1.0,0.0002663160557858646,1.0,9.999999747378752e-05
0.00819936953485012,1.0,0.00018887709593400358,1.0,9.999999747378752e-05
0.008215038105845451,1.0,0.000367298920173198,1.0,9.999999747378752e-05
0.008225875906646252,1.0,0.00023295259452424944,1.0,9.999999747378752e-05
0.008341622538864613,1.0,0.000670773908495903,1.0,9.999999747378752e-05
0.00852938275784254,1.0,0.00022606590646319092,1.0,9.999999747378752e-05
0.008695130236446857,1.0,0.0002075286116451025,1.0,9.999999747378752e-05
0.008926588110625744,1.0,0.0003592411172576249,1.0,9.999999747378752e-05
0.00910844188183546,1.0,0.0002008297888096422,1.0,9.999999747378752e-05
0.009341130964457989,1.0,0.00033358901273459194,1.0,9.999999747378752e-05
0.009408446028828621,1.0,0.0003498840378597379,1.0,9.999999747378752e-05
0.009493479505181313,1.0,0.00027575502172112466,1.0,9.999999747378752e-05
0.0095805199816823,1.0,0.00020780148479389028,1.0,9.999999747378752e-05
0.009679433889687061,1.0,0.0002013142977375537,1.0,9.999999747378752e-05
0.009630022570490837,1.0,0.00035295563284307716,1.0,9.999999747378752e-05
0.009772593155503273,1.0,0.0003244048915803432,1.0,9.999999747378752e-05
0.009917981922626495,1.0,0.00022360694711096585,1.0,9.999999747378752e-05
0.009977702051401138,1.0,0.00019367600907571614,1.0,9.999999747378752e-05
0.009976431727409363,1.0,0.00020999989355914296,1.0,9.999999747378752e-05
0.009978387504816055,1.0,0.00021007406176067888,1.0,9.999999747378752e-05
0.010042950510978699,1.0,0.00020405312534421682,1.0,9.999999747378752e-05
0.010064278729259968,1.0,0.00018097118008881808,1.0,9.999999747378752e-05
0.010086096823215485,1.0,0.0002158439834602177,1.0,9.999999747378752e-05
0.010275699198246002,1.0,0.00043656486086547376,1.0,9.999999747378752e-05
0.010134655050933361,1.0,0.0003136406070552766,1.0,9.999999747378752e-05
0.010003332979977131,1.0,0.0003090878715738654,1.0,9.999999747378752e-05
0.010027054697275162,1.0,0.00015887258341535927,1.0,9.999999747378752e-05
0.009896052069962025,1.0,0.0002655584481544793,1.0,9.999999747378752e-05
0.009796150028705597,1.0,0.0004502323921769857,1.0,9.999999747378752e-05
0.010058272629976273,1.0,0.0007218696875497699,1.0,9.999999747378752e-05
0.0100441575050354,1.0,0.002296071592718363,1.0,9.999999747378752e-05
0.010490657761693,1.0,0.0002552052261307836,1.0,9.999999747378752e-05
0.010826456360518932,1.0,0.00015845285379327833,1.0,9.999999747378752e-05
0.011040841229259968,1.0,0.00018834343645721675,1.0,9.999999747378752e-05
0.011182507500052452,1.0,0.000321242306381464,1.0,9.999999747378752e-05
0.011635040864348412,1.0,0.0003118125256150961,1.0,9.999999747378752e-05
0.011931980028748512,1.0,0.000820980966091156,1.0,9.999999747378752e-05
0.011805174872279167,1.0,0.0001739848987199366,1.0,9.999999747378752e-05
0.011808915063738823,1.0,0.00020136231323704125,1.0,9.999999747378752e-05
0.011881177313625813,1.0,0.0022558038122951984,1.0,9.999999747378752e-05
0.012713584117591381,1.0,0.0003096663655014709,1.0,9.999999747378752e-05
0.013293939642608166,1.0,0.00037431478267535567,1.0,9.999999747378752e-05
0.01403779536485672,1.0,0.00020208999630995096,1.0,9.999999747378752e-05
0.014578210189938545,1.0,0.00014738269965164363,1.0,9.999999747378752e-05
0.014941705390810966,1.0,0.00018909984501078725,1.0,9.999999747378752e-05
0.014864142052829266,1.0,0.0005118744680657983,1.0,9.999999747378752e-05
0.01480394322425127,1.0,0.00019733364460989834,1.0,9.999999747378752e-05
0.014683018438518047,1.0,0.00032743359915912154,1.0,9.999999747378752e-05
0.014800828881561756,1.0,0.0001797463570255786,1.0,9.999999747378752e-05
0.01487048715353012,1.0,0.00019370261288713663,1.0,9.999999747378752e-05
0.014569893479347229,1.0,0.00024585631908848884,1.0,9.999999747378752e-05
0.014368394389748573,1.0,0.0004167721257545054,1.0,9.999999747378752e-05
0.01417078822851181,1.0,0.0002823017188347876,1.0,9.999999747378752e-05
0.014216318726539612,1.0,0.00018082846654579043,1.0,9.999999747378752e-05
0.014215809293091297,1.0,0.00017790286656236277,1.0,9.999999747378752e-05
0.014293218031525612,1.0,0.00022392193786799908,1.0,9.999999747378752e-05
0.014294484630227089,1.0,0.0001775659795384854,1.0,9.999999747378752e-05
0.014190524816513062,1.0,0.00014729287649970502,1.0,9.999999747378752e-05
0.014077330939471722,1.0,0.00015681760851293802,1.0,9.999999747378752e-05
0.0140459556132555,1.0,0.00015803424175828696,1.0,9.999999747378752e-05
0.01366426795721054,1.0,0.0005001407349482179,1.0,9.999999747378752e-05
0.013537684455513954,1.0,0.00017998655675910413,1.0,9.999999747378752e-05
0.013510873541235924,1.0,0.00021733015310019255,1.0,9.999999747378752e-05
0.013146375305950642,1.0,0.0002597254002466798,1.0,9.999999747378752e-05
0.01307929027825594,1.0,0.00018910743528977036,1.0,9.999999747378752e-05
0.013160035014152527,1.0,0.00039608983788639305,1.0,9.999999747378752e-05
0.013006491586565971,1.0,0.0002346375200431794,1.0,9.999999747378752e-05
0.012706415727734566,1.0,0.00021196056623011826,1.0,9.999999747378752e-05
0.012402274645864964,1.0,0.0002179723815061152,1.0,9.999999747378752e-05
0.012379373423755169,1.0,0.0004979533492587507,1.0,9.999999747378752e-05
0.012286658398807049,1.0,0.00013428793754428626,1.0,9.999999747378752e-05
0.01219221018254757,1.0,0.00016820572200231253,1.0,9.999999747378752e-05
0.011873254552483559,1.0,0.00022731412318535149,1.0,9.999999747378752e-05
0.01176183857023716,1.0,0.00017097307718358934,1.0,9.999999747378752e-05
0.01166878454387188,1.0,0.00017506988951936363,1.0,9.999999747378752e-05
0.0115357069298625,1.0,0.0001344485062872991,1.0,9.999999747378752e-05
0.011374647729098797,1.0,0.00016986630507744848,1.0,9.999999747378752e-05
0.011254733428359032,1.0,0.00015992750122677534,1.0,9.999999747378752e-05
0.011102674528956413,1.0,0.0019920828402973712,1.0,9.999999747378752e-05
0.011691221967339516,1.0,0.00032944859704002737,1.0,9.999999747378752e-05
0.012127217836678028,1.0,0.00030010615009814503,1.0,9.999999747378752e-05
0.012210159562528133,1.0,0.0001883027609437704,1.0,9.999999747378752e-05
0.012362910434603691,1.0,0.00027091414667665956,1.0,9.999999747378752e-05
0.012368228286504745,1.0,0.00014339076296892016,1.0,9.999999747378752e-05
0.012488868087530136,1.0,0.0001740529842209071,1.0,9.999999747378752e-05
0.01243581622838974,1.0,0.00013878665049560368,1.0,9.999999747378752e-05
0.01222938857972622,1.0,0.000250271859113127,1.0,9.999999747378752e-05
0.012111477553844452,1.0,0.00020362535142339765,1.0,9.999999747378752e-05
0.012099330313503742,1.0,0.00014133316144580022,1.0,9.999999747378752e-05
0.011894959025084972,1.0,0.0003425936447456479,1.0,9.999999747378752e-05
0.011944638565182686,1.0,0.0001729883995722048,1.0,9.999999747378752e-05
0.011994699016213417,1.0,0.00020668142242357134,1.0,9.999999747378752e-05
0.012097425758838654,1.0,0.000404487201012671,1.0,9.999999747378752e-05
0.01189170591533184,1.0,0.00011961684213019907,1.0,9.999999747378752e-05
0.011887745000422001,1.0,0.000197998812654987,1.0,9.999999747378752e-05
0.011899331584572792,1.0,0.00036688323598355055,1.0,9.999999747378752e-05
0.01142827607691288,1.0,0.0005582672776654363,1.0,9.999999747378752e-05
0.011291317641735077,1.0,0.0001536956522613764,1.0,9.999999747378752e-05
0.011215505190193653,1.0,0.00018704079848248513,1.0,9.999999747378752e-05
0.011199863627552986,1.0,0.00024188043898902832,1.0,9.999999747378752e-05
0.011076804250478745,1.0,0.00016540245269425213,1.0,9.999999747378752e-05
0.010985898785293102,1.0,0.00014229495282052084,1.0,9.999999747378752e-05
0.011094203218817711,1.0,0.0002484640222974122,1.0,9.999999747378752e-05
0.010861826129257679,1.0,0.0003495963057503104,1.0,9.999999747378752e-05
0.010494505986571312,1.0,0.0006116250762715936,1.0,9.999999747378752e-05
0.010350532829761505,1.0,0.00014503125566989183,1.0,9.999999747378752e-05
0.01017471868544817,1.0,0.00022737153922207652,1.0,9.999999747378752e-05
0.010054003447294235,1.0,0.00015634201117791234,1.0,9.999999747378752e-05
0.010037685744464397,1.0,0.00018743269029073418,1.0,9.999999747378752e-05
0.009807402268052101,1.0,0.0003383562667295337,1.0,9.999999747378752e-05
0.009598087519407272,1.0,0.00031234945636242627,1.0,9.999999747378752e-05
0.009621886536478996,1.0,0.00019321757135912777,1.0,9.999999747378752e-05
0.009632145054638386,1.0,0.0001469751776312478,1.0,9.999999747378752e-05
0.009703575633466244,1.0,0.00016186691354960203,1.0,9.999999747378752e-05
0.009723633527755737,1.0,0.00017187463818117975,1.0,9.999999747378752e-05
0.009705408476293087,1.0,0.0001400468696374446,1.0,9.999999747378752e-05
0.009552981704473495,1.0,0.0002916593453846872,1.0,9.999999747378752e-05
0.00965583324432373,1.0,0.001421100925654173,1.0,9.999999747378752e-05
0.009413872845470905,1.0,0.0001615735498489812,1.0,9.999999747378752e-05
0.009314557537436485,1.0,0.00017245085327886046,1.0,9.999999747378752e-05
0.009307960979640484,1.0,0.00023848876589909195,1.0,9.999999747378752e-05
0.009073702618479729,1.0,0.00033001565607264637,1.0,9.999999747378752e-05
0.009156993590295315,1.0,0.00021996619179844856,1.0,9.999999747378752e-05
0.009083077311515808,1.0,0.00016939820197876544,1.0,9.999999747378752e-05
0.008969486691057682,1.0,0.00015043775783851743,1.0,9.999999747378752e-05
0.008990244939923286,1.0,0.00011316457239445299,1.0,9.999999747378752e-05
0.00894357543438673,1.0,0.0001529343135189265,1.0,9.999999747378752e-05
0.008962659165263176,1.0,0.00011747458192985505,1.0,9.999999747378752e-05
0.009204428642988205,1.0,0.0012648037634789943,1.0,9.999999747378752e-05
